Variable Influent Data to Bed Number 2 is given below:
Time   Cin(1,T)    Cin(2, T)   Cin(3, T)   Cin(4, T)   Cin(5, T)   Cin(6, T)
(min)  (mg/L)      (mg/L)      (mg/L)      (mg/L)      (mg/L)      (mg/L)
0.0    2.258E-01   3.331E+02
0.7    2.913E+01   3.118E+02
1.3    7.767E+01   2.759E+02
2.0    1.228E+02   2.426E+02
2.6    1.398E+02   2.301E+02
3.3    1.467E+02   2.250E+02
3.9    1.541E+02   2.195E+02
4.6    1.634E+02   2.127E+02
5.2    1.748E+02   2.043E+02
5.9    1.879E+02   1.946E+02
6.5    2.019E+02   1.842E+02
7.2    2.163E+02   1.736E+02
7.8    2.305E+02   1.631E+02
8.5    2.443E+02   1.530E+02
9.1    2.573E+02   1.433E+02
9.8    2.693E+02   1.345E+02
10.4   2.800E+02   1.266E+02
11.1   2.891E+02   1.199E+02
11.7   2.966E+02   1.144E+02
12.4   3.024E+02   1.100E+02
13.0   3.068E+02   1.068E+02
13.7   3.101E+02   1.044E+02
14.3   3.126E+02   1.025E+02
15.0   3.145E+02   1.011E+02
15.6   3.162E+02   9.990E+01
16.3   3.177E+02   9.880E+01
16.9   3.191E+02   9.773E+01
17.6   3.206E+02   9.665E+01
18.2   3.221E+02   9.554E+01
18.9   3.237E+02   9.436E+01
19.5   3.254E+02   9.312E+01
20.2   3.272E+02   9.179E+01
20.8   3.291E+02   9.038E+01
21.5   3.311E+02   8.888E+01
22.1   3.333E+02   8.729E+01
22.8   3.355E+02   8.562E+01
23.4   3.379E+02   8.387E+01
24.1   3.404E+02   8.205E+01
24.7   3.429E+02   8.017E+01
25.4   3.455E+02   7.824E+01
26.0   3.482E+02   7.627E+01
26.7   3.509E+02   7.428E+01
27.3   3.536E+02   7.229E+01
28.0   3.563E+02   7.030E+01
28.6   3.589E+02   6.834E+01
29.3   3.616E+02   6.641E+01
29.9   3.641E+02   6.452E+01
30.6   3.666E+02   6.270E+01
31.2   3.690E+02   6.093E+01
31.9   3.713E+02   5.924E+01
32.5   3.734E+02   5.763E+01
33.2   3.755E+02   5.610E+01
33.8   3.775E+02   5.467E+01
34.5   3.793E+02   5.332E+01
35.1   3.810E+02   5.207E+01
35.8   3.826E+02   5.090E+01
36.4   3.840E+02   4.983E+01
37.1   3.853E+02   4.885E+01
37.7   3.866E+02   4.796E+01
38.4   3.877E+02   4.714E+01
39.0   3.887E+02   4.639E+01
39.7   3.896E+02   4.572E+01
40.3   3.904E+02   4.510E+01
41.0   3.912E+02   4.454E+01
41.6   3.919E+02   4.402E+01
42.3   3.925E+02   4.355E+01
42.9   3.931E+02   4.311E+01
43.6   3.937E+02   4.270E+01
44.2   3.942E+02   4.231E+01
44.9   3.947E+02   4.194E+01
45.5   3.952E+02   4.159E+01
46.2   3.957E+02   4.124E+01
46.8   3.961E+02   4.090E+01
47.5   3.966E+02   4.057E+01
48.1   3.970E+02   4.023E+01
48.8   3.975E+02   3.990E+01
49.4   3.979E+02   3.956E+01
50.1   3.984E+02   3.921E+01
50.7   3.989E+02   3.886E+01
51.4   3.994E+02   3.850E+01
52.0   3.999E+02   3.812E+01
52.7   4.004E+02   3.774E+01
53.3   4.009E+02   3.734E+01
54.0   4.015E+02   3.694E+01
54.6   4.021E+02   3.651E+01
55.3   4.026E+02   3.608E+01
55.9   4.033E+02   3.563E+01
56.6   4.039E+02   3.517E+01
57.2   4.045E+02   3.469E+01
57.9   4.052E+02   3.420E+01
58.5   4.059E+02   3.370E+01
59.2   4.066E+02   3.319E+01
59.8   4.073E+02   3.266E+01
60.5   4.080E+02   3.213E+01
61.1   4.087E+02   3.158E+01
61.8   4.095E+02   3.103E+01
62.4   4.102E+02   3.047E+01
63.1   4.110E+02   2.991E+01
63.7   4.118E+02   2.934E+01
64.4   4.125E+02   2.877E+01
65.0   4.133E+02   2.820E+01
65.7   4.141E+02   2.763E+01
66.3   4.149E+02   2.706E+01
67.0   4.156E+02   2.650E+01
67.6   4.164E+02   2.595E+01
68.3   4.171E+02   2.540E+01
68.9   4.179E+02   2.485E+01
69.6   4.186E+02   2.432E+01
70.2   4.193E+02   2.380E+01
70.9   4.200E+02   2.329E+01
71.5   4.206E+02   2.280E+01
72.2   4.213E+02   2.232E+01
72.8   4.219E+02   2.185E+01
73.5   4.225E+02   2.140E+01
74.1   4.231E+02   2.096E+01
74.8   4.237E+02   2.054E+01
75.4   4.243E+02   2.013E+01
76.1   4.248E+02   1.975E+01
76.7   4.253E+02   1.937E+01
77.4   4.258E+02   1.901E+01
78.0   4.262E+02   1.867E+01
78.7   4.267E+02   1.834E+01
79.3   4.271E+02   1.803E+01
80.0   4.275E+02   1.773E+01
80.6   4.279E+02   1.745E+01
81.3   4.283E+02   1.718E+01
81.9   4.286E+02   1.692E+01
82.6   4.290E+02   1.666E+01
83.2   4.293E+02   1.642E+01
83.9   4.296E+02   1.618E+01
84.5   4.299E+02   1.595E+01
85.2   4.302E+02   1.573E+01
85.8   4.305E+02   1.552E+01
86.5   4.308E+02   1.531E+01
87.1   4.311E+02   1.509E+01
87.8   4.314E+02   1.489E+01
88.4   4.316E+02   1.468E+01
89.1   4.319E+02   1.447E+01
89.7   4.322E+02   1.426E+01
90.4   4.325E+02   1.406E+01
91.0   4.328E+02   1.384E+01
91.7   4.331E+02   1.363E+01
92.3   4.334E+02   1.340E+01
93.0   4.337E+02   1.318E+01
93.6   4.340E+02   1.294E+01
94.3   4.343E+02   1.270E+01
94.9   4.347E+02   1.246E+01
95.6   4.350E+02   1.220E+01
96.2   4.354E+02   1.194E+01
96.9   4.357E+02   1.167E+01
97.5   4.361E+02   1.139E+01
98.2   4.365E+02   1.110E+01
98.8   4.369E+02   1.081E+01
99.5   4.373E+02   1.050E+01
100.1  4.377E+02   1.020E+01
100.8  4.381E+02   9.881E+00
101.4  4.386E+02   9.561E+00
102.1  4.390E+02   9.235E+00
102.7  4.395E+02   8.906E+00
103.4  4.399E+02   8.574E+00
104.0  4.404E+02   8.239E+00
104.7  4.408E+02   7.903E+00
105.3  4.413E+02   7.567E+00
106.0  4.417E+02   7.231E+00
106.6  4.422E+02   6.898E+00
107.3  4.426E+02   6.566E+00
107.9  4.431E+02   6.239E+00
108.6  4.435E+02   5.916E+00
109.2  4.439E+02   5.599E+00
109.9  4.444E+02   5.289E+00
110.5  4.448E+02   4.986E+00
111.2  4.452E+02   4.691E+00
111.8  4.456E+02   4.406E+00
112.5  4.459E+02   4.131E+00
113.1  4.463E+02   3.866E+00
113.8  4.466E+02   3.611E+00
114.4  4.470E+02   3.368E+00
115.1  4.473E+02   3.137E+00
115.7  4.476E+02   2.917E+00
116.4  4.479E+02   2.708E+00
117.0  4.481E+02   2.512E+00
117.7  4.484E+02   2.326E+00
118.3  4.486E+02   2.152E+00
119.0  4.488E+02   1.989E+00
119.6  4.490E+02   1.837E+00
120.3  4.492E+02   1.694E+00
120.9  4.494E+02   1.562E+00
121.6  4.496E+02   1.439E+00
122.2  4.497E+02   1.325E+00
122.9  4.499E+02   1.218E+00
123.5  4.500E+02   1.120E+00
124.2  4.501E+02   1.030E+00
124.8  4.502E+02   9.462E-01
125.5  4.504E+02   8.693E-01
126.1  4.504E+02   7.985E-01
126.8  4.505E+02   7.335E-01
127.4  4.506E+02   6.738E-01
128.1  4.507E+02   6.188E-01
128.7  4.508E+02   5.683E-01
129.4  4.508E+02   5.220E-01
130.0  4.509E+02   4.795E-01
130.7  4.509E+02   4.407E-01
131.3  4.510E+02   4.051E-01
132.0  4.510E+02   3.727E-01
132.6  4.511E+02   3.431E-01
133.3  4.511E+02   3.160E-01
133.9  4.511E+02   2.913E-01
134.6  4.512E+02   2.687E-01
135.2  4.512E+02   2.480E-01
135.9  4.512E+02   2.292E-01
136.5  4.512E+02   2.120E-01
137.2  4.513E+02   1.963E-01
137.8  4.513E+02   1.819E-01
138.5  4.513E+02   1.689E-01
139.1  4.513E+02   1.569E-01
139.8  4.513E+02   1.461E-01
140.4  4.513E+02   1.362E-01
141.1  4.514E+02   1.272E-01
141.7  4.514E+02   1.190E-01
142.4  4.514E+02   1.115E-01
143.0  4.514E+02   1.047E-01
143.7  4.514E+02   9.852E-02
144.3  4.514E+02   9.283E-02
145.0  4.514E+02   8.764E-02
145.6  4.514E+02   8.290E-02
146.3  4.514E+02   7.858E-02
146.9  4.514E+02   7.466E-02
147.6  4.514E+02   7.110E-02
148.2  4.514E+02   6.778E-02
148.9  4.514E+02   6.474E-02
149.5  4.514E+02   6.197E-02
150.2  4.514E+02   5.946E-02
150.8  4.515E+02   5.719E-02
151.5  4.515E+02   5.518E-02
152.1  4.515E+02   5.328E-02
152.8  4.515E+02   5.153E-02
153.4  4.515E+02   4.994E-02
154.1  4.515E+02   4.852E-02
154.7  4.515E+02   4.724E-02
155.4  4.515E+02   4.612E-02
156.0  4.515E+02   4.510E-02
156.7  4.515E+02   4.414E-02
157.3  4.515E+02   4.328E-02
158.0  4.515E+02   4.250E-02
158.6  4.515E+02   4.182E-02
159.3  4.515E+02   4.121E-02
159.9  4.515E+02   4.067E-02
160.6  4.515E+02   4.017E-02
161.2  4.515E+02   3.971E-02
161.9  4.515E+02   3.930E-02
162.5  4.515E+02   3.894E-02
163.2  4.515E+02   3.861E-02
163.8  4.515E+02   3.832E-02
164.5  4.515E+02   3.805E-02
165.1  4.515E+02   3.780E-02
165.8  4.515E+02   3.758E-02
166.4  4.515E+02   3.738E-02
167.1  4.515E+02   3.720E-02
167.7  4.515E+02   3.704E-02
168.4  4.515E+02   3.687E-02
169.0  4.515E+02   3.672E-02
169.7  4.515E+02   3.657E-02
170.3  4.515E+02   3.644E-02
171.0  4.515E+02   3.631E-02
171.6  4.515E+02   3.620E-02
172.3  4.515E+02   3.610E-02
172.9  4.515E+02   3.601E-02
173.6  4.515E+02   3.594E-02
174.2  4.515E+02   3.588E-02
174.9  4.515E+02   3.580E-02
175.5  4.515E+02   3.572E-02



Variable Influent Data to Bed Number 3 is given below:
Time   Cin(1,T)    Cin(2, T)   Cin(3, T)   Cin(4, T)   Cin(5, T)   Cin(6, T)
(min)  (mg/L)      (mg/L)      (mg/L)      (mg/L)      (mg/L)      (mg/L)
0.0    2.258E-01   3.331E+02
0.7    4.547E-01   3.329E+02
1.3    1.432E+00   3.322E+02
2.0    3.117E+00   3.310E+02
2.6    5.814E+00   3.290E+02
3.3    9.708E+00   3.261E+02
3.9    1.510E+01   3.221E+02
4.6    2.234E+01   3.168E+02
5.2    3.156E+01   3.100E+02
5.9    4.235E+01   3.020E+02
6.5    5.337E+01   2.939E+02
7.2    6.290E+01   2.868E+02
7.8    7.046E+01   2.813E+02
8.5    7.692E+01   2.765E+02
9.1    8.312E+01   2.719E+02
9.8    8.945E+01   2.672E+02
10.4   9.601E+01   2.624E+02
11.1   1.028E+02   2.574E+02
11.7   1.100E+02   2.521E+02
12.4   1.175E+02   2.466E+02
13.0   1.252E+02   2.409E+02
13.7   1.330E+02   2.351E+02
14.3   1.408E+02   2.293E+02
15.0   1.487E+02   2.235E+02
15.6   1.565E+02   2.178E+02
16.3   1.642E+02   2.121E+02
16.9   1.718E+02   2.065E+02
17.6   1.792E+02   2.010E+02
18.2   1.865E+02   1.956E+02
18.9   1.934E+02   1.905E+02
19.5   2.000E+02   1.856E+02
20.2   2.062E+02   1.811E+02
20.8   2.119E+02   1.768E+02
21.5   2.172E+02   1.730E+02
22.1   2.219E+02   1.695E+02
22.8   2.262E+02   1.663E+02
23.4   2.300E+02   1.635E+02
24.1   2.335E+02   1.609E+02
24.7   2.368E+02   1.585E+02
25.4   2.398E+02   1.562E+02
26.0   2.428E+02   1.541E+02
26.7   2.456E+02   1.520E+02
27.3   2.484E+02   1.499E+02
28.0   2.512E+02   1.479E+02
28.6   2.540E+02   1.458E+02
29.3   2.568E+02   1.437E+02
29.9   2.596E+02   1.417E+02
30.6   2.624E+02   1.396E+02
31.2   2.652E+02   1.375E+02
31.9   2.680E+02   1.355E+02
32.5   2.708E+02   1.334E+02
33.2   2.737E+02   1.313E+02
33.8   2.765E+02   1.292E+02
34.5   2.793E+02   1.271E+02
35.1   2.822E+02   1.250E+02
35.8   2.850E+02   1.229E+02
36.4   2.878E+02   1.208E+02
37.1   2.906E+02   1.188E+02
37.7   2.934E+02   1.167E+02
38.4   2.962E+02   1.147E+02
39.0   2.989E+02   1.127E+02
39.7   3.016E+02   1.107E+02
40.3   3.043E+02   1.087E+02
41.0   3.069E+02   1.067E+02
41.6   3.095E+02   1.049E+02
42.3   3.120E+02   1.030E+02
42.9   3.145E+02   1.012E+02
43.6   3.169E+02   9.940E+01
44.2   3.192E+02   9.768E+01
44.9   3.215E+02   9.601E+01
45.5   3.236E+02   9.439E+01
46.2   3.258E+02   9.282E+01
46.8   3.278E+02   9.131E+01
47.5   3.298E+02   8.986E+01
48.1   3.317E+02   8.846E+01
48.8   3.335E+02   8.712E+01
49.4   3.352E+02   8.584E+01
50.1   3.369E+02   8.462E+01
50.7   3.385E+02   8.345E+01
51.4   3.400E+02   8.232E+01
52.0   3.414E+02   8.125E+01
52.7   3.428E+02   8.023E+01
53.3   3.442E+02   7.924E+01
54.0   3.454E+02   7.830E+01
54.6   3.467E+02   7.739E+01
55.3   3.479E+02   7.651E+01
55.9   3.490E+02   7.565E+01
56.6   3.502E+02   7.482E+01
57.2   3.513E+02   7.401E+01
57.9   3.523E+02   7.321E+01
58.5   3.534E+02   7.242E+01
59.2   3.545E+02   7.165E+01
59.8   3.555E+02   7.087E+01
60.5   3.566E+02   7.010E+01
61.1   3.576E+02   6.933E+01
61.8   3.586E+02   6.856E+01
62.4   3.597E+02   6.779E+01
63.1   3.607E+02   6.702E+01
63.7   3.618E+02   6.625E+01
64.4   3.628E+02   6.547E+01
65.0   3.639E+02   6.468E+01
65.7   3.650E+02   6.390E+01
66.3   3.660E+02   6.311E+01
67.0   3.671E+02   6.231E+01
67.6   3.682E+02   6.151E+01
68.3   3.693E+02   6.071E+01
68.9   3.704E+02   5.991E+01
69.6   3.715E+02   5.910E+01
70.2   3.726E+02   5.829E+01
70.9   3.737E+02   5.748E+01
71.5   3.748E+02   5.667E+01
72.2   3.759E+02   5.585E+01
72.8   3.770E+02   5.504E+01
73.5   3.781E+02   5.423E+01
74.1   3.792E+02   5.342E+01
74.8   3.803E+02   5.261E+01
75.4   3.813E+02   5.180E+01
76.1   3.824E+02   5.100E+01
76.7   3.835E+02   5.020E+01
77.4   3.846E+02   4.940E+01
78.0   3.857E+02   4.860E+01
78.7   3.867E+02   4.781E+01
79.3   3.878E+02   4.703E+01
80.0   3.889E+02   4.626E+01
80.6   3.899E+02   4.549E+01
81.3   3.909E+02   4.473E+01
81.9   3.920E+02   4.397E+01
82.6   3.930E+02   4.323E+01
83.2   3.940E+02   4.249E+01
83.9   3.950E+02   4.176E+01
84.5   3.959E+02   4.104E+01
85.2   3.969E+02   4.033E+01
85.8   3.978E+02   3.963E+01
86.5   3.988E+02   3.895E+01
87.1   3.997E+02   3.827E+01
87.8   4.006E+02   3.760E+01
88.4   4.015E+02   3.694E+01
89.1   4.024E+02   3.629E+01
89.7   4.032E+02   3.566E+01
90.4   4.041E+02   3.503E+01
91.0   4.049E+02   3.442E+01
91.7   4.057E+02   3.381E+01
92.3   4.065E+02   3.321E+01
93.0   4.073E+02   3.262E+01
93.6   4.081E+02   3.203E+01
94.3   4.089E+02   3.146E+01
94.9   4.097E+02   3.089E+01
95.6   4.104E+02   3.032E+01
96.2   4.112E+02   2.977E+01
96.9   4.120E+02   2.921E+01
97.5   4.127E+02   2.866E+01
98.2   4.134E+02   2.812E+01
98.8   4.142E+02   2.758E+01
99.5   4.149E+02   2.704E+01
100.1  4.156E+02   2.650E+01
100.8  4.163E+02   2.597E+01
101.4  4.171E+02   2.543E+01
102.1  4.178E+02   2.491E+01
102.7  4.185E+02   2.438E+01
103.4  4.192E+02   2.385E+01
104.0  4.199E+02   2.333E+01
104.7  4.206E+02   2.281E+01
105.3  4.213E+02   2.229E+01
106.0  4.220E+02   2.177E+01
106.6  4.227E+02   2.125E+01
107.3  4.234E+02   2.074E+01
107.9  4.241E+02   2.023E+01
108.6  4.248E+02   1.971E+01
109.2  4.255E+02   1.921E+01
109.9  4.262E+02   1.870E+01
110.5  4.269E+02   1.819E+01
111.2  4.276E+02   1.769E+01
111.8  4.282E+02   1.719E+01
112.5  4.289E+02   1.669E+01
113.1  4.296E+02   1.619E+01
113.8  4.303E+02   1.570E+01
114.4  4.309E+02   1.521E+01
115.1  4.316E+02   1.472E+01
115.7  4.322E+02   1.424E+01
116.4  4.329E+02   1.375E+01
117.0  4.335E+02   1.327E+01
117.7  4.342E+02   1.280E+01
118.3  4.348E+02   1.232E+01
119.0  4.355E+02   1.186E+01
119.6  4.361E+02   1.139E+01
120.3  4.367E+02   1.093E+01
120.9  4.373E+02   1.048E+01
121.6  4.379E+02   1.003E+01
122.2  4.385E+02   9.584E+00
122.9  4.391E+02   9.146E+00
123.5  4.397E+02   8.715E+00
124.2  4.403E+02   8.292E+00
124.8  4.409E+02   7.877E+00
125.5  4.414E+02   7.470E+00
126.1  4.419E+02   7.073E+00
126.8  4.425E+02   6.686E+00
127.4  4.430E+02   6.310E+00
128.1  4.435E+02   5.945E+00
128.7  4.440E+02   5.591E+00
129.4  4.444E+02   5.249E+00
130.0  4.449E+02   4.919E+00
130.7  4.453E+02   4.603E+00
131.3  4.457E+02   4.300E+00
132.0  4.461E+02   4.011E+00
132.6  4.465E+02   3.735E+00
133.3  4.468E+02   3.474E+00
133.9  4.472E+02   3.226E+00
134.6  4.475E+02   2.993E+00
135.2  4.478E+02   2.772E+00
135.9  4.481E+02   2.565E+00
136.5  4.483E+02   2.371E+00
137.2  4.486E+02   2.189E+00
137.8  4.488E+02   2.020E+00
138.5  4.490E+02   1.862E+00
139.1  4.492E+02   1.715E+00
139.8  4.494E+02   1.579E+00
140.4  4.496E+02   1.453E+00
141.1  4.497E+02   1.336E+00
141.7  4.499E+02   1.228E+00
142.4  4.500E+02   1.128E+00
143.0  4.501E+02   1.037E+00
143.7  4.502E+02   9.520E-01
144.3  4.503E+02   8.741E-01
145.0  4.504E+02   8.025E-01
145.6  4.505E+02   7.366E-01
146.3  4.506E+02   6.762E-01
146.9  4.507E+02   6.207E-01
147.6  4.508E+02   5.699E-01
148.2  4.508E+02   5.233E-01
148.9  4.509E+02   4.807E-01
149.5  4.509E+02   4.417E-01
150.2  4.510E+02   4.060E-01
150.8  4.510E+02   3.733E-01
151.5  4.511E+02   3.434E-01
152.1  4.511E+02   3.160E-01
152.8  4.511E+02   2.910E-01
153.4  4.512E+02   2.680E-01
154.1  4.512E+02   2.471E-01
154.7  4.512E+02   2.282E-01
155.4  4.512E+02   2.113E-01
156.0  4.513E+02   1.960E-01
156.7  4.513E+02   1.817E-01
157.3  4.513E+02   1.684E-01
158.0  4.513E+02   1.559E-01
158.6  4.513E+02   1.448E-01
159.3  4.513E+02   1.347E-01
159.9  4.514E+02   1.258E-01
160.6  4.514E+02   1.179E-01
161.2  4.514E+02   1.106E-01
161.9  4.514E+02   1.038E-01
162.5  4.514E+02   9.765E-02
163.2  4.514E+02   9.205E-02
163.8  4.514E+02   8.697E-02
164.5  4.514E+02   8.234E-02
165.1  4.514E+02   7.814E-02
165.8  4.514E+02   7.429E-02
166.4  4.514E+02   7.077E-02
167.1  4.514E+02   6.757E-02
167.7  4.514E+02   6.464E-02
168.4  4.514E+02   6.197E-02
169.0  4.514E+02   5.954E-02
169.7  4.515E+02   5.733E-02
170.3  4.515E+02   5.527E-02
171.0  4.515E+02   5.337E-02
171.6  4.515E+02   5.165E-02
172.3  4.515E+02   5.009E-02
172.9  4.515E+02   4.870E-02
173.6  4.515E+02   4.748E-02
174.2  4.515E+02   4.636E-02
174.9  4.515E+02   4.529E-02
175.5  4.515E+02   4.432E-02
176.2  4.515E+02   4.344E-02
176.8  4.515E+02   4.267E-02
177.5  4.515E+02   4.200E-02
178.1  4.515E+02   4.144E-02
178.8  4.515E+02   4.089E-02
179.4  4.515E+02   4.037E-02
180.1  4.515E+02   3.991E-02
180.7  4.515E+02   3.948E-02
181.4  4.515E+02   3.910E-02
182.0  4.515E+02   3.876E-02
182.7  4.515E+02   3.846E-02
183.3  4.515E+02   3.817E-02
184.0  4.515E+02   3.792E-02
184.6  4.515E+02   3.768E-02
185.3  4.515E+02   3.748E-02
185.9  4.515E+02   3.729E-02
186.6  4.515E+02   3.713E-02
187.2  4.515E+02   3.699E-02
187.9  4.515E+02   3.685E-02
188.5  4.515E+02   3.673E-02
189.2  4.515E+02   3.662E-02
189.8  4.515E+02   3.653E-02
190.5  4.515E+02   3.645E-02
191.1  4.515E+02   3.639E-02
191.8  4.515E+02   3.633E-02
192.4  4.515E+02   3.627E-02
193.1  4.515E+02   3.622E-02
193.7  4.515E+02   3.618E-02
194.4  4.515E+02   3.613E-02
195.0  4.515E+02   3.610E-02
195.7  4.515E+02   3.606E-02
196.3  4.515E+02   3.603E-02
197.0  4.515E+02   3.600E-02
197.6  4.515E+02   3.597E-02
198.3  4.515E+02   3.594E-02
198.9  4.515E+02   3.591E-02
199.6  4.515E+02   3.589E-02
200.2  4.515E+02   3.586E-02
200.9  4.515E+02   3.584E-02
201.5  4.515E+02   3.583E-02
202.2  4.515E+02   3.581E-02
202.8  4.515E+02   3.579E-02



Variable Influent Data to Bed Number 4 is given below:
Time   Cin(1,T)    Cin(2, T)   Cin(3, T)   Cin(4, T)   Cin(5, T)   Cin(6, T)
(min)  (mg/L)      (mg/L)      (mg/L)      (mg/L)      (mg/L)      (mg/L)
0.0    2.258E-01   3.331E+02
0.7    2.258E-01   3.331E+02
1.3    2.258E-01   3.331E+02
2.0    2.258E-01   3.331E+02
2.6    2.258E-01   3.331E+02
3.3    2.258E-01   3.331E+02
3.9    2.552E-01   3.331E+02
4.6    3.987E-01   3.330E+02
5.2    6.082E-01   3.328E+02
5.9    9.110E-01   3.326E+02
6.5    1.340E+00   3.323E+02
7.2    1.952E+00   3.318E+02
7.8    2.809E+00   3.312E+02
8.5    3.953E+00   3.303E+02
9.1    5.466E+00   3.292E+02
9.8    7.448E+00   3.278E+02
10.4   9.993E+00   3.259E+02
11.1   1.320E+01   3.235E+02
11.7   1.713E+01   3.206E+02
12.4   2.177E+01   3.172E+02
13.0   2.700E+01   3.133E+02
13.7   3.252E+01   3.093E+02
14.3   3.791E+01   3.053E+02
15.0   4.277E+01   3.017E+02
15.6   4.696E+01   2.986E+02
16.3   5.063E+01   2.959E+02
16.9   5.404E+01   2.934E+02
17.6   5.741E+01   2.909E+02
18.2   6.085E+01   2.884E+02
18.9   6.441E+01   2.857E+02
19.5   6.813E+01   2.830E+02
20.2   7.203E+01   2.801E+02
20.8   7.614E+01   2.771E+02
21.5   8.046E+01   2.739E+02
22.1   8.501E+01   2.705E+02
22.8   8.977E+01   2.670E+02
23.4   9.472E+01   2.634E+02
24.1   9.983E+01   2.596E+02
24.7   1.051E+02   2.557E+02
25.4   1.105E+02   2.517E+02
26.0   1.159E+02   2.477E+02
26.7   1.215E+02   2.436E+02
27.3   1.272E+02   2.394E+02
28.0   1.329E+02   2.352E+02
28.6   1.386E+02   2.310E+02
29.3   1.443E+02   2.268E+02
29.9   1.500E+02   2.226E+02
30.6   1.556E+02   2.184E+02
31.2   1.611E+02   2.144E+02
31.9   1.664E+02   2.104E+02
32.5   1.715E+02   2.067E+02
33.2   1.764E+02   2.031E+02
33.8   1.809E+02   1.997E+02
34.5   1.852E+02   1.966E+02
35.1   1.892E+02   1.936E+02
35.8   1.929E+02   1.909E+02
36.4   1.963E+02   1.884E+02
37.1   1.995E+02   1.860E+02
37.7   2.025E+02   1.838E+02
38.4   2.053E+02   1.817E+02
39.0   2.081E+02   1.797E+02
39.7   2.107E+02   1.778E+02
40.3   2.133E+02   1.759E+02
41.0   2.158E+02   1.740E+02
41.6   2.183E+02   1.722E+02
42.3   2.207E+02   1.703E+02
42.9   2.232E+02   1.685E+02
43.6   2.256E+02   1.667E+02
44.2   2.281E+02   1.649E+02
44.9   2.305E+02   1.631E+02
45.5   2.330E+02   1.613E+02
46.2   2.354E+02   1.595E+02
46.8   2.379E+02   1.577E+02
47.5   2.403E+02   1.559E+02
48.1   2.428E+02   1.541E+02
48.8   2.453E+02   1.522E+02
49.4   2.478E+02   1.504E+02
50.1   2.503E+02   1.486E+02
50.7   2.528E+02   1.467E+02
51.4   2.553E+02   1.449E+02
52.0   2.578E+02   1.430E+02
52.7   2.603E+02   1.411E+02
53.3   2.628E+02   1.393E+02
54.0   2.654E+02   1.374E+02
