Output Data from Bed Number 1 is given below:
Time   CP(1,T)/CT  CP(2,T)/CT  CP(3,T)/CT  CP(4,T)/CT  CP(5,T)/CT  CP(6,T)/CT
(min)  (-)         (-)         (-)         (-)         (-)         (-)
1.0    4.662E-06   1.000E+00
2.4    4.923E-06   1.000E+00
3.8    3.709E-06   1.000E+00
5.2    4.289E-06   1.000E+00
6.6    3.031E-06   1.000E+00
8.0    1.064E-06   1.000E+00
9.4    -5.680E-08  1.000E+00
10.8   2.303E-06   1.000E+00
12.2   3.123E-06   1.000E+00
13.6   5.266E-06   1.000E+00
15.0   2.228E-06   1.000E+00
16.4   2.556E-06   1.000E+00
17.8   4.362E-06   1.000E+00
19.2   1.064E-06   1.000E+00
20.6   3.511E-06   1.000E+00
22.0   3.968E-06   1.000E+00
23.4   1.071E-05   1.000E+00
24.8   1.061E-05   1.000E+00
26.2   2.104E-05   1.000E+00
27.6   2.925E-05   1.000E+00
29.0   3.983E-05   1.000E+00
30.4   5.315E-05   9.999E-01
31.8   6.964E-05   9.999E-01
33.2   8.987E-05   9.999E-01
34.6   1.144E-04   9.999E-01
36.0   1.439E-04   9.999E-01
37.4   1.791E-04   9.998E-01
38.8   2.205E-04   9.998E-01
40.2   2.690E-04   9.997E-01
41.6   3.253E-04   9.997E-01
43.0   3.902E-04   9.996E-01
44.4   4.646E-04   9.995E-01
45.8   5.493E-04   9.995E-01
47.2   6.452E-04   9.994E-01
48.6   7.533E-04   9.992E-01
50.0   8.746E-04   9.991E-01
51.4   1.010E-03   9.990E-01
52.8   1.160E-03   9.988E-01
54.2   1.327E-03   9.987E-01
55.6   1.510E-03   9.985E-01
57.0   1.712E-03   9.983E-01
58.4   1.933E-03   9.981E-01
59.8   2.174E-03   9.978E-01
61.2   2.436E-03   9.976E-01
62.6   2.721E-03   9.973E-01
64.0   3.030E-03   9.970E-01
65.4   3.362E-03   9.966E-01
66.8   3.721E-03   9.963E-01
68.2   4.106E-03   9.959E-01
69.6   4.518E-03   9.955E-01
71.0   4.960E-03   9.950E-01
72.4   5.431E-03   9.946E-01
73.8   5.933E-03   9.941E-01
75.2   6.468E-03   9.935E-01
76.6   7.035E-03   9.930E-01
78.0   7.636E-03   9.924E-01
79.4   8.272E-03   9.917E-01
80.8   8.945E-03   9.911E-01
82.2   9.654E-03   9.903E-01
83.6   1.040E-02   9.896E-01
85.0   1.119E-02   9.888E-01
86.4   1.202E-02   9.880E-01
87.8   1.288E-02   9.871E-01
89.2   1.379E-02   9.862E-01
90.6   1.474E-02   9.853E-01
92.0   1.574E-02   9.843E-01
93.4   1.678E-02   9.832E-01
94.8   1.787E-02   9.821E-01
96.2   1.900E-02   9.810E-01
97.6   2.018E-02   9.798E-01
99.0   2.141E-02   9.786E-01
100.4  2.269E-02   9.773E-01
101.8  2.401E-02   9.760E-01
103.2  2.539E-02   9.746E-01
104.6  2.682E-02   9.732E-01
106.0  2.830E-02   9.717E-01
107.4  2.983E-02   9.702E-01
108.8  3.142E-02   9.686E-01
110.2  3.306E-02   9.669E-01
111.6  3.476E-02   9.652E-01
113.0  3.651E-02   9.635E-01
114.4  3.831E-02   9.617E-01
115.8  4.018E-02   9.598E-01
117.2  4.210E-02   9.579E-01
118.6  4.408E-02   9.559E-01
120.0  4.612E-02   9.539E-01
121.4  4.822E-02   9.518E-01
122.8  5.037E-02   9.496E-01
124.2  5.259E-02   9.474E-01
125.6  5.487E-02   9.451E-01
127.0  5.721E-02   9.428E-01
128.4  5.961E-02   9.404E-01
129.8  6.207E-02   9.379E-01
131.2  6.459E-02   9.354E-01
132.6  6.718E-02   9.328E-01
134.0  6.983E-02   9.302E-01
135.4  7.255E-02   9.275E-01
136.8  7.532E-02   9.247E-01
138.2  7.817E-02   9.218E-01
139.6  8.107E-02   9.189E-01
141.0  8.404E-02   9.160E-01
142.4  8.708E-02   9.129E-01
143.8  9.018E-02   9.098E-01
145.2  9.335E-02   9.067E-01
146.6  9.658E-02   9.034E-01
148.0  9.987E-02   9.001E-01
149.4  1.032E-01   8.968E-01
150.8  1.067E-01   8.933E-01
152.2  1.102E-01   8.898E-01
153.6  1.137E-01   8.863E-01
155.0  1.173E-01   8.827E-01
156.4  1.210E-01   8.790E-01
157.8  1.248E-01   8.752E-01
159.2  1.286E-01   8.714E-01
160.6  1.325E-01   8.675E-01
162.0  1.364E-01   8.636E-01
163.4  1.405E-01   8.595E-01
164.8  1.445E-01   8.555E-01
166.2  1.487E-01   8.513E-01
167.6  1.529E-01   8.471E-01
169.0  1.572E-01   8.428E-01
170.4  1.615E-01   8.385E-01
171.8  1.659E-01   8.341E-01
173.2  1.704E-01   8.296E-01
174.6  1.749E-01   8.251E-01
176.0  1.795E-01   8.205E-01
177.4  1.841E-01   8.159E-01
178.8  1.889E-01   8.111E-01
180.2  1.936E-01   8.064E-01
181.6  1.985E-01   8.015E-01
183.0  2.033E-01   7.967E-01
184.4  2.083E-01   7.917E-01
185.8  2.133E-01   7.867E-01
187.2  2.183E-01   7.817E-01
188.6  2.235E-01   7.765E-01
190.0  2.286E-01   7.714E-01
191.4  2.339E-01   7.661E-01
192.8  2.391E-01   7.609E-01
194.2  2.445E-01   7.555E-01
195.6  2.499E-01   7.501E-01
197.0  2.553E-01   7.447E-01
198.4  2.608E-01   7.392E-01
199.8  2.663E-01   7.337E-01
201.2  2.719E-01   7.281E-01
202.6  2.775E-01   7.225E-01
204.0  2.832E-01   7.168E-01
205.4  2.889E-01   7.111E-01
206.8  2.947E-01   7.053E-01
208.2  3.005E-01   6.995E-01
209.6  3.063E-01   6.937E-01
211.0  3.122E-01   6.878E-01
212.4  3.181E-01   6.819E-01
213.8  3.241E-01   6.759E-01
215.2  3.300E-01   6.700E-01
216.6  3.361E-01   6.639E-01
218.0  3.421E-01   6.579E-01
219.4  3.482E-01   6.518E-01
220.8  3.543E-01   6.457E-01
222.2  3.605E-01   6.395E-01
223.6  3.666E-01   6.334E-01
225.0  3.728E-01   6.272E-01
226.4  3.791E-01   6.209E-01
227.8  3.853E-01   6.147E-01
229.2  3.916E-01   6.084E-01
230.6  3.979E-01   6.021E-01
232.0  4.042E-01   5.958E-01
233.4  4.105E-01   5.895E-01
234.8  4.168E-01   5.832E-01
236.2  4.232E-01   5.768E-01
237.6  4.295E-01   5.705E-01
239.0  4.359E-01   5.641E-01
240.4  4.423E-01   5.577E-01
241.8  4.487E-01   5.513E-01
243.2  4.551E-01   5.449E-01
244.6  4.615E-01   5.385E-01
246.0  4.679E-01   5.321E-01
247.4  4.743E-01   5.257E-01
248.8  4.807E-01   5.193E-01
250.2  4.870E-01   5.130E-01
251.6  4.934E-01   5.066E-01
253.0  4.998E-01   5.002E-01
254.4  5.062E-01   4.938E-01
255.8  5.126E-01   4.874E-01
257.2  5.189E-01   4.811E-01
258.6  5.253E-01   4.747E-01
260.0  5.316E-01   4.684E-01
261.4  5.379E-01   4.621E-01
262.8  5.442E-01   4.558E-01
264.2  5.505E-01   4.495E-01
265.6  5.568E-01   4.432E-01
267.0  5.630E-01   4.370E-01
268.4  5.693E-01   4.307E-01
269.8  5.755E-01   4.245E-01
271.2  5.816E-01   4.184E-01
272.6  5.878E-01   4.122E-01
274.0  5.939E-01   4.061E-01
275.4  6.000E-01   4.000E-01
276.8  6.061E-01   3.939E-01
278.2  6.121E-01   3.879E-01
279.6  6.181E-01   3.819E-01
281.0  6.241E-01   3.759E-01
282.4  6.300E-01   3.700E-01
283.8  6.359E-01   3.641E-01
285.2  6.417E-01   3.583E-01
286.6  6.475E-01   3.525E-01
288.0  6.533E-01   3.467E-01
289.4  6.591E-01   3.409E-01
290.8  6.647E-01   3.353E-01
292.2  6.704E-01   3.296E-01
293.6  6.760E-01   3.240E-01
295.0  6.815E-01   3.185E-01
296.4  6.871E-01   3.129E-01
297.8  6.925E-01   3.075E-01
299.2  6.979E-01   3.021E-01
300.6  7.033E-01   2.967E-01
302.0  7.086E-01   2.914E-01
303.4  7.139E-01   2.861E-01
304.8  7.191E-01   2.809E-01
306.2  7.243E-01   2.757E-01
307.6  7.294E-01   2.706E-01
309.0  7.344E-01   2.656E-01
310.4  7.394E-01   2.606E-01
311.8  7.444E-01   2.556E-01
313.2  7.493E-01   2.507E-01
314.6  7.541E-01   2.459E-01
316.0  7.589E-01   2.411E-01
317.4  7.636E-01   2.364E-01
318.8  7.683E-01   2.317E-01
320.2  7.729E-01   2.271E-01
321.6  7.774E-01   2.226E-01
323.0  7.819E-01   2.181E-01
324.4  7.864E-01   2.136E-01
325.8  7.907E-01   2.093E-01
327.2  7.951E-01   2.049E-01
328.6  7.993E-01   2.007E-01
330.0  8.035E-01   1.965E-01
331.4  8.077E-01   1.923E-01
332.8  8.117E-01   1.883E-01
334.2  8.158E-01   1.842E-01
335.6  8.197E-01   1.803E-01
337.0  8.236E-01   1.764E-01
338.4  8.275E-01   1.725E-01
339.8  8.312E-01   1.688E-01
341.2  8.350E-01   1.650E-01
342.6  8.386E-01   1.614E-01
344.0  8.422E-01   1.578E-01
345.4  8.458E-01   1.542E-01
346.8  8.493E-01   1.507E-01
348.2  8.527E-01   1.473E-01
349.6  8.560E-01   1.440E-01
351.0  8.594E-01   1.406E-01
352.4  8.626E-01   1.374E-01
353.8  8.658E-01   1.342E-01
355.2  8.689E-01   1.311E-01
356.6  8.720E-01   1.280E-01
358.0  8.750E-01   1.250E-01
359.4  8.780E-01   1.220E-01
360.8  8.809E-01   1.191E-01
362.2  8.838E-01   1.162E-01
363.6  8.866E-01   1.134E-01
365.0  8.893E-01   1.107E-01
366.4  8.920E-01   1.080E-01
367.8  8.947E-01   1.053E-01
369.2  8.972E-01   1.028E-01
370.6  8.998E-01   1.002E-01
372.0  9.023E-01   9.773E-02
373.4  9.047E-01   9.530E-02
374.8  9.071E-01   9.291E-02
376.2  9.094E-01   9.058E-02
377.6  9.117E-01   8.829E-02
379.0  9.139E-01   8.606E-02
380.4  9.161E-01   8.387E-02
381.8  9.183E-01   8.173E-02
383.2  9.204E-01   7.963E-02
384.6  9.224E-01   7.758E-02
386.0  9.244E-01   7.558E-02
387.4  9.264E-01   7.362E-02
388.8  9.283E-01   7.170E-02
390.2  9.302E-01   6.983E-02
391.6  9.320E-01   6.800E-02
393.0  9.338E-01   6.621E-02
394.4  9.355E-01   6.446E-02
395.8  9.372E-01   6.275E-02
397.2  9.389E-01   6.109E-02
398.6  9.405E-01   5.946E-02
400.0  9.421E-01   5.787E-02
401.4  9.437E-01   5.632E-02
402.8  9.452E-01   5.480E-02
404.2  9.467E-01   5.333E-02
405.6  9.481E-01   5.188E-02
407.0  9.495E-01   5.048E-02
408.4  9.509E-01   4.910E-02
409.8  9.522E-01   4.776E-02
411.2  9.535E-01   4.646E-02
412.6  9.548E-01   4.518E-02
414.0  9.561E-01   4.394E-02
415.4  9.573E-01   4.273E-02
416.8  9.585E-01   4.155E-02
418.2  9.596E-01   4.040E-02
419.6  9.607E-01   3.928E-02
421.0  9.618E-01   3.819E-02
422.4  9.629E-01   3.712E-02
423.8  9.639E-01   3.608E-02
425.2  9.649E-01   3.507E-02
426.6  9.659E-01   3.409E-02
428.0  9.669E-01   3.313E-02
429.4  9.678E-01   3.220E-02
430.8  9.687E-01   3.129E-02
432.2  9.696E-01   3.040E-02
433.6  9.705E-01   2.954E-02
435.0  9.713E-01   2.870E-02
436.4  9.721E-01   2.789E-02
437.8  9.729E-01   2.709E-02
439.2  9.737E-01   2.632E-02
440.6  9.744E-01   2.557E-02
442.0  9.752E-01   2.484E-02
443.4  9.759E-01   2.413E-02
444.8  9.766E-01   2.343E-02
446.2  9.772E-01   2.276E-02
447.6  9.779E-01   2.211E-02
449.0  9.785E-01   2.147E-02
450.4  9.792E-01   2.085E-02
451.8  9.798E-01   2.025E-02
453.2  9.803E-01   1.966E-02
454.6  9.809E-01   1.909E-02
456.0  9.815E-01   1.854E-02
457.4  9.820E-01   1.800E-02
458.8  9.825E-01   1.747E-02
460.2  9.830E-01   1.697E-02
461.6  9.835E-01   1.647E-02
463.0  9.840E-01   1.599E-02
464.4  9.845E-01   1.552E-02
465.8  9.849E-01   1.507E-02
467.2  9.854E-01   1.463E-02
468.6  9.858E-01   1.420E-02
470.0  9.862E-01   1.379E-02
471.4  9.866E-01   1.338E-02
472.8  9.870E-01   1.299E-02
474.2  9.874E-01   1.261E-02
475.6  9.878E-01   1.224E-02
477.0  9.881E-01   1.188E-02
478.4  9.885E-01   1.153E-02
479.8  9.888E-01   1.119E-02
481.2  9.891E-01   1.086E-02
482.6  9.895E-01   1.054E-02
484.0  9.898E-01   1.023E-02
485.4  9.901E-01   9.926E-03
486.8  9.904E-01   9.634E-03
488.2  9.907E-01   9.349E-03
489.6  9.909E-01   9.073E-03
491.0  9.912E-01   8.805E-03
492.4  9.915E-01   8.545E-03
493.8  9.917E-01   8.292E-03
495.2  9.920E-01   8.047E-03
496.6  9.922E-01   7.809E-03
498.0  9.924E-01   7.578E-03
499.4  9.926E-01   7.354E-03
500.8  9.929E-01   7.136E-03
502.2  9.931E-01   6.925E-03
503.6  9.933E-01   6.721E-03
505.0  9.935E-01   6.522E-03
506.4  9.937E-01   6.330E-03
507.8  9.939E-01   6.143E-03
509.2  9.940E-01   5.961E-03
510.6  9.942E-01   5.785E-03
512.0  9.944E-01   5.614E-03
513.4  9.946E-01   5.449E-03
514.8  9.947E-01   5.288E-03
516.2  9.949E-01   5.132E-03
517.6  9.950E-01   4.980E-03
518.0  9.951E-01   4.938E-03
