Variable Influent Data to Bed Number 2 is given below:
Time   Cin(1,T)    Cin(2, T)   Cin(3, T)   Cin(4, T)   Cin(5, T)   Cin(6, T)
(min)  (mg/L)      (mg/L)      (mg/L)      (mg/L)      (mg/L)      (mg/L)
0.0    2.258E-01   3.331E+02
0.7    2.912E+01   3.118E+02
1.3    7.764E+01   2.760E+02
2.0    1.229E+02   2.426E+02
2.6    1.397E+02   2.302E+02
3.3    1.466E+02   2.250E+02
3.9    1.541E+02   2.195E+02
4.6    1.634E+02   2.127E+02
5.2    1.746E+02   2.044E+02
5.9    1.876E+02   1.948E+02
6.5    2.018E+02   1.844E+02
7.2    2.162E+02   1.737E+02
7.8    2.305E+02   1.632E+02
8.5    2.442E+02   1.530E+02
9.1    2.572E+02   1.435E+02
9.8    2.691E+02   1.346E+02
10.4   2.799E+02   1.267E+02
11.1   2.891E+02   1.199E+02
11.7   2.967E+02   1.143E+02
12.4   3.023E+02   1.101E+02
13.0   3.069E+02   1.067E+02
13.7   3.101E+02   1.044E+02
14.3   3.125E+02   1.026E+02
15.0   3.145E+02   1.011E+02
15.6   3.161E+02   9.993E+01
16.3   3.176E+02   9.882E+01
16.9   3.190E+02   9.778E+01
17.6   3.205E+02   9.671E+01
18.2   3.220E+02   9.561E+01
18.9   3.236E+02   9.443E+01
19.5   3.253E+02   9.317E+01
20.2   3.271E+02   9.183E+01
20.8   3.290E+02   9.041E+01
21.5   3.311E+02   8.890E+01
22.1   3.332E+02   8.731E+01
22.8   3.355E+02   8.564E+01
23.4   3.379E+02   8.389E+01
24.1   3.403E+02   8.207E+01
24.7   3.429E+02   8.019E+01
25.4   3.455E+02   7.826E+01
26.0   3.482E+02   7.629E+01
26.7   3.509E+02   7.428E+01
27.3   3.536E+02   7.227E+01
28.0   3.563E+02   7.027E+01
28.6   3.590E+02   6.829E+01
29.3   3.617E+02   6.634E+01
29.9   3.642E+02   6.443E+01
30.6   3.667E+02   6.259E+01
31.2   3.691E+02   6.082E+01
31.9   3.714E+02   5.912E+01
32.5   3.736E+02   5.751E+01
33.2   3.757E+02   5.599E+01
33.8   3.776E+02   5.454E+01
34.5   3.795E+02   5.319E+01
35.1   3.812E+02   5.194E+01
35.8   3.827E+02   5.079E+01
36.4   3.842E+02   4.972E+01
37.1   3.855E+02   4.875E+01
37.7   3.867E+02   4.787E+01
38.4   3.878E+02   4.707E+01
39.0   3.888E+02   4.633E+01
39.7   3.897E+02   4.566E+01
40.3   3.905E+02   4.506E+01
41.0   3.912E+02   4.451E+01
41.6   3.919E+02   4.402E+01
42.3   3.925E+02   4.357E+01
42.9   3.930E+02   4.317E+01
43.6   3.936E+02   4.277E+01
44.2   3.941E+02   4.239E+01
44.9   3.946E+02   4.202E+01
45.5   3.951E+02   4.166E+01
46.2   3.955E+02   4.133E+01
46.8   3.960E+02   4.100E+01
47.5   3.964E+02   4.066E+01
48.1   3.969E+02   4.033E+01
48.8   3.973E+02   4.000E+01
49.4   3.978E+02   3.966E+01
50.1   3.983E+02   3.932E+01
50.7   3.987E+02   3.897E+01
51.4   3.992E+02   3.860E+01
52.0   3.997E+02   3.823E+01
52.7   4.003E+02   3.785E+01
53.3   4.008E+02   3.745E+01
54.0   4.014E+02   3.703E+01
54.6   4.019E+02   3.660E+01
55.3   4.025E+02   3.616E+01
55.9   4.032E+02   3.571E+01
56.6   4.038E+02   3.524E+01
57.2   4.044E+02   3.475E+01
57.9   4.051E+02   3.425E+01
58.5   4.058E+02   3.375E+01
59.2   4.065E+02   3.323E+01
59.8   4.072E+02   3.270E+01
60.5   4.080E+02   3.216E+01
61.1   4.087E+02   3.161E+01
61.8   4.095E+02   3.106E+01
62.4   4.102E+02   3.049E+01
63.1   4.110E+02   2.993E+01
63.7   4.118E+02   2.935E+01
64.4   4.125E+02   2.877E+01
65.0   4.133E+02   2.820E+01
65.7   4.141E+02   2.763E+01
66.3   4.149E+02   2.706E+01
67.0   4.156E+02   2.649E+01
67.6   4.164E+02   2.593E+01
68.3   4.172E+02   2.538E+01
68.9   4.179E+02   2.483E+01
69.6   4.186E+02   2.429E+01
70.2   4.193E+02   2.377E+01
70.9   4.200E+02   2.325E+01
71.5   4.207E+02   2.275E+01
72.2   4.214E+02   2.226E+01
72.8   4.220E+02   2.179E+01
73.5   4.226E+02   2.133E+01
74.1   4.232E+02   2.089E+01
74.8   4.238E+02   2.047E+01
75.4   4.243E+02   2.006E+01
76.1   4.249E+02   1.967E+01
76.7   4.254E+02   1.929E+01
77.4   4.259E+02   1.893E+01
78.0   4.263E+02   1.859E+01
78.7   4.268E+02   1.827E+01
79.3   4.272E+02   1.796E+01
80.0   4.276E+02   1.766E+01
80.6   4.280E+02   1.738E+01
81.3   4.284E+02   1.711E+01
81.9   4.287E+02   1.685E+01
82.6   4.290E+02   1.660E+01
83.2   4.293E+02   1.637E+01
83.9   4.297E+02   1.614E+01
84.5   4.300E+02   1.592E+01
85.2   4.302E+02   1.571E+01
85.8   4.305E+02   1.550E+01
86.5   4.308E+02   1.530E+01
87.1   4.311E+02   1.510E+01
87.8   4.314E+02   1.489E+01
88.4   4.316E+02   1.468E+01
89.1   4.319E+02   1.447E+01
89.7   4.322E+02   1.425E+01
90.4   4.325E+02   1.403E+01
91.0   4.328E+02   1.381E+01
91.7   4.331E+02   1.359E+01
92.3   4.334E+02   1.338E+01
93.0   4.337E+02   1.317E+01
93.6   4.340E+02   1.295E+01
94.3   4.343E+02   1.274E+01
94.9   4.346E+02   1.252E+01
95.6   4.349E+02   1.228E+01
96.2   4.352E+02   1.203E+01
96.9   4.356E+02   1.177E+01
97.5   4.360E+02   1.149E+01
98.2   4.364E+02   1.119E+01
98.8   4.368E+02   1.090E+01
99.5   4.372E+02   1.060E+01
100.1  4.376E+02   1.029E+01
100.8  4.380E+02   9.967E+00
101.4  4.385E+02   9.636E+00
102.1  4.389E+02   9.296E+00
102.7  4.394E+02   8.961E+00
103.4  4.398E+02   8.622E+00
104.0  4.403E+02   8.282E+00
104.7  4.408E+02   7.940E+00
105.3  4.412E+02   7.599E+00
106.0  4.417E+02   7.258E+00
106.6  4.422E+02   6.919E+00
107.3  4.426E+02   6.583E+00
107.9  4.431E+02   6.251E+00
108.6  4.435E+02   5.923E+00
109.2  4.439E+02   5.601E+00
109.9  4.444E+02   5.286E+00
110.5  4.448E+02   4.978E+00
111.2  4.452E+02   4.678E+00
111.8  4.456E+02   4.388E+00
112.5  4.460E+02   4.109E+00
113.1  4.463E+02   3.840E+00
113.8  4.467E+02   3.582E+00
114.4  4.470E+02   3.333E+00
115.1  4.473E+02   3.097E+00
115.7  4.476E+02   2.872E+00
116.4  4.479E+02   2.661E+00
117.0  4.482E+02   2.464E+00
117.7  4.484E+02   2.277E+00
118.3  4.487E+02   2.100E+00
119.0  4.489E+02   1.935E+00
119.6  4.491E+02   1.782E+00
120.3  4.493E+02   1.641E+00
120.9  4.495E+02   1.513E+00
121.6  4.496E+02   1.392E+00
122.2  4.498E+02   1.280E+00
122.9  4.499E+02   1.178E+00
123.5  4.501E+02   1.084E+00
124.2  4.502E+02   9.994E-01
124.8  4.503E+02   9.228E-01
125.5  4.504E+02   8.511E-01
126.1  4.505E+02   7.855E-01
126.8  4.505E+02   7.256E-01
127.4  4.506E+02   6.707E-01
128.1  4.507E+02   6.203E-01
128.7  4.508E+02   5.741E-01
129.4  4.508E+02   5.319E-01
130.0  4.509E+02   4.930E-01
130.7  4.509E+02   4.567E-01
131.3  4.510E+02   4.226E-01
132.0  4.510E+02   3.903E-01
132.6  4.510E+02   3.605E-01
133.3  4.511E+02   3.340E-01
133.9  4.511E+02   3.094E-01
134.6  4.511E+02   2.864E-01
135.2  4.512E+02   2.647E-01
135.9  4.512E+02   2.441E-01
136.5  4.512E+02   2.258E-01
137.2  4.512E+02   2.100E-01
137.8  4.513E+02   1.959E-01
138.5  4.513E+02   1.833E-01
139.1  4.513E+02   1.722E-01
139.8  4.513E+02   1.626E-01
140.4  4.513E+02   1.533E-01
141.1  4.513E+02   1.444E-01
141.7  4.513E+02   1.360E-01
142.4  4.514E+02   1.280E-01
143.0  4.514E+02   1.201E-01
143.7  4.514E+02   1.122E-01
144.3  4.514E+02   1.058E-01
145.0  4.514E+02   9.989E-02
145.6  4.514E+02   9.438E-02
146.3  4.514E+02   8.923E-02
146.9  4.514E+02   8.439E-02
147.6  4.514E+02   7.988E-02
148.2  4.514E+02   7.607E-02
148.9  4.514E+02   7.268E-02
149.5  4.514E+02   6.968E-02
150.2  4.514E+02   6.707E-02
150.8  4.514E+02   6.483E-02
151.5  4.514E+02   6.147E-02
152.1  4.514E+02   5.996E-02
152.8  4.515E+02   5.832E-02
153.4  4.515E+02   5.654E-02
154.1  4.515E+02   5.463E-02
154.7  4.515E+02   5.259E-02
155.4  4.515E+02   5.090E-02
156.0  4.515E+02   4.971E-02
156.7  4.515E+02   4.856E-02
157.3  4.515E+02   4.747E-02
158.0  4.515E+02   4.643E-02
158.6  4.515E+02   4.544E-02
159.3  4.515E+02   4.450E-02
159.9  4.515E+02   4.361E-02
160.6  4.515E+02   4.277E-02
161.2  4.515E+02   4.199E-02
161.9  4.515E+02   4.126E-02
162.5  4.515E+02   4.060E-02
163.2  4.515E+02   4.000E-02
163.8  4.515E+02   3.945E-02
164.5  4.515E+02   3.895E-02
165.1  4.515E+02   3.852E-02
165.8  4.515E+02   3.813E-02
166.4  4.515E+02   3.780E-02
167.1  4.515E+02   3.753E-02
167.7  4.515E+02   3.731E-02
168.4  4.515E+02   3.708E-02
169.0  4.515E+02   3.681E-02
169.7  4.515E+02   3.656E-02
170.3  4.515E+02   3.635E-02
171.0  4.515E+02   3.617E-02
171.6  4.515E+02   3.601E-02
172.3  4.515E+02   3.588E-02
172.9  4.515E+02   3.578E-02



Variable Influent Data to Bed Number 3 is given below:
Time   Cin(1,T)    Cin(2, T)   Cin(3, T)   Cin(4, T)   Cin(5, T)   Cin(6, T)
(min)  (mg/L)      (mg/L)      (mg/L)      (mg/L)      (mg/L)      (mg/L)
0.0    2.258E-01   3.331E+02
0.7    4.552E-01   3.329E+02
1.3    1.434E+00   3.322E+02
2.0    3.112E+00   3.310E+02
2.6    5.803E+00   3.290E+02
3.3    9.701E+00   3.261E+02
3.9    1.510E+01   3.221E+02
4.6    2.234E+01   3.168E+02
5.2    3.153E+01   3.100E+02
5.9    4.227E+01   3.021E+02
6.5    5.331E+01   2.939E+02
7.2    6.297E+01   2.868E+02
7.8    7.061E+01   2.811E+02
8.5    7.698E+01   2.764E+02
9.1    8.297E+01   2.720E+02
9.8    8.928E+01   2.674E+02
10.4   9.586E+01   2.625E+02
11.1   1.028E+02   2.574E+02
11.7   1.100E+02   2.521E+02
12.4   1.173E+02   2.467E+02
13.0   1.250E+02   2.410E+02
13.7   1.327E+02   2.353E+02
14.3   1.406E+02   2.295E+02
15.0   1.485E+02   2.237E+02
15.6   1.563E+02   2.179E+02
16.3   1.640E+02   2.122E+02
16.9   1.716E+02   2.066E+02
17.6   1.791E+02   2.011E+02
18.2   1.863E+02   1.958E+02
18.9   1.933E+02   1.906E+02
19.5   1.999E+02   1.857E+02
20.2   2.061E+02   1.812E+02
20.8   2.119E+02   1.768E+02
21.5   2.172E+02   1.729E+02
22.1   2.220E+02   1.694E+02
22.8   2.264E+02   1.662E+02
23.4   2.302E+02   1.633E+02
24.1   2.337E+02   1.607E+02
24.7   2.369E+02   1.584E+02
25.4   2.399E+02   1.562E+02
26.0   2.427E+02   1.541E+02
26.7   2.454E+02   1.521E+02
27.3   2.482E+02   1.501E+02
28.0   2.511E+02   1.479E+02
28.6   2.539E+02   1.459E+02
29.3   2.567E+02   1.438E+02
29.9   2.596E+02   1.417E+02
30.6   2.624E+02   1.396E+02
31.2   2.652E+02   1.375E+02
31.9   2.681E+02   1.354E+02
32.5   2.709E+02   1.333E+02
33.2   2.737E+02   1.312E+02
33.8   2.766E+02   1.291E+02
34.5   2.794E+02   1.270E+02
35.1   2.822E+02   1.250E+02
35.8   2.850E+02   1.229E+02
36.4   2.878E+02   1.208E+02
37.1   2.906E+02   1.188E+02
37.7   2.934E+02   1.167E+02
38.4   2.961E+02   1.147E+02
39.0   2.988E+02   1.127E+02
39.7   3.015E+02   1.108E+02
40.3   3.041E+02   1.088E+02
41.0   3.067E+02   1.069E+02
41.6   3.093E+02   1.050E+02
42.3   3.118E+02   1.032E+02
42.9   3.142E+02   1.014E+02
43.6   3.166E+02   9.960E+01
44.2   3.189E+02   9.787E+01
44.9   3.212E+02   9.619E+01
45.5   3.234E+02   9.456E+01
46.2   3.256E+02   9.297E+01
46.8   3.277E+02   9.143E+01
47.5   3.297E+02   8.996E+01
48.1   3.316E+02   8.854E+01
48.8   3.334E+02   8.717E+01
49.4   3.352E+02   8.586E+01
50.1   3.369E+02   8.461E+01
50.7   3.385E+02   8.341E+01
51.4   3.401E+02   8.227E+01
52.0   3.416E+02   8.116E+01
52.7   3.430E+02   8.010E+01
53.3   3.444E+02   7.909E+01
54.0   3.457E+02   7.813E+01
54.6   3.469E+02   7.720E+01
55.3   3.481E+02   7.632E+01
55.9   3.493E+02   7.548E+01
56.6   3.504E+02   7.466E+01
57.2   3.515E+02   7.384E+01
57.9   3.526E+02   7.303E+01
58.5   3.537E+02   7.224E+01
59.2   3.547E+02   7.146E+01
59.8   3.558E+02   7.069E+01
60.5   3.568E+02   6.993E+01
61.1   3.578E+02   6.918E+01
61.8   3.588E+02   6.842E+01
62.4   3.599E+02   6.766E+01
63.1   3.609E+02   6.689E+01
63.7   3.619E+02   6.613E+01
64.4   3.630E+02   6.536E+01
65.0   3.640E+02   6.458E+01
65.7   3.651E+02   6.380E+01
66.3   3.661E+02   6.302E+01
67.0   3.672E+02   6.223E+01
67.6   3.683E+02   6.144E+01
68.3   3.694E+02   6.064E+01
68.9   3.705E+02   5.984E+01
69.6   3.715E+02   5.904E+01
70.2   3.726E+02   5.824E+01
70.9   3.737E+02   5.743E+01
71.5   3.748E+02   5.662E+01
72.2   3.759E+02   5.582E+01
72.8   3.770E+02   5.501E+01
73.5   3.781E+02   5.420E+01
74.1   3.792E+02   5.339E+01
74.8   3.803E+02   5.259E+01
75.4   3.814E+02   5.179E+01
76.1   3.824E+02   5.099E+01
76.7   3.835E+02   5.020E+01
77.4   3.846E+02   4.941E+01
78.0   3.856E+02   4.863E+01
78.7   3.867E+02   4.785E+01
79.3   3.878E+02   4.707E+01
80.0   3.888E+02   4.629E+01
80.6   3.899E+02   4.551E+01
81.3   3.909E+02   4.474E+01
81.9   3.920E+02   4.397E+01
82.6   3.930E+02   4.322E+01
83.2   3.940E+02   4.247E+01
83.9   3.950E+02   4.174E+01
84.5   3.959E+02   4.102E+01
85.2   3.969E+02   4.032E+01
85.8   3.978E+02   3.962E+01
86.5   3.988E+02   3.893E+01
87.1   3.997E+02   3.825E+01
87.8   4.006E+02   3.758E+01
88.4   4.015E+02   3.693E+01
89.1   4.024E+02   3.628E+01
89.7   4.032E+02   3.564E+01
90.4   4.041E+02   3.501E+01
91.0   4.049E+02   3.439E+01
91.7   4.058E+02   3.377E+01
92.3   4.066E+02   3.317E+01
93.0   4.074E+02   3.258E+01
93.6   4.082E+02   3.199E+01
94.3   4.090E+02   3.142E+01
94.9   4.097E+02   3.085E+01
95.6   4.105E+02   3.030E+01
96.2   4.112E+02   2.975E+01
96.9   4.119E+02   2.922E+01
97.5   4.127E+02   2.869E+01
98.2   4.134E+02   2.816E+01
98.8   4.141E+02   2.762E+01
99.5   4.148E+02   2.708E+01
100.1  4.156E+02   2.655E+01
100.8  4.163E+02   2.601E+01
101.4  4.170E+02   2.547E+01
102.1  4.178E+02   2.493E+01
102.7  4.185E+02   2.440E+01
103.4  4.192E+02   2.387E+01
104.0  4.199E+02   2.334E+01
104.7  4.206E+02   2.282E+01
105.3  4.213E+02   2.230E+01
106.0  4.220E+02   2.178E+01
106.6  4.227E+02   2.127E+01
107.3  4.234E+02   2.075E+01
107.9  4.241E+02   2.025E+01
108.6  4.248E+02   1.974E+01
109.2  4.255E+02   1.924E+01
109.9  4.261E+02   1.875E+01
110.5  4.268E+02   1.825E+01
111.2  4.275E+02   1.775E+01
111.8  4.282E+02   1.725E+01
112.5  4.288E+02   1.675E+01
113.1  4.295E+02   1.625E+01
113.8  4.302E+02   1.575E+01
114.4  4.309E+02   1.525E+01
115.1  4.315E+02   1.475E+01
115.7  4.322E+02   1.426E+01
116.4  4.329E+02   1.378E+01
117.0  4.335E+02   1.329E+01
117.7  4.342E+02   1.282E+01
118.3  4.348E+02   1.234E+01
119.0  4.354E+02   1.187E+01
119.6  4.361E+02   1.141E+01
120.3  4.367E+02   1.095E+01
120.9  4.373E+02   1.050E+01
121.6  4.379E+02   1.005E+01
122.2  4.385E+02   9.606E+00
122.9  4.391E+02   9.170E+00
123.5  4.397E+02   8.741E+00
124.2  4.403E+02   8.319E+00
124.8  4.408E+02   7.903E+00
125.5  4.414E+02   7.496E+00
126.1  4.419E+02   7.096E+00
126.8  4.424E+02   6.706E+00
127.4  4.430E+02   6.327E+00
128.1  4.435E+02   5.958E+00
128.7  4.439E+02   5.600E+00
129.4  4.444E+02   5.254E+00
130.0  4.449E+02   4.919E+00
130.7  4.453E+02   4.598E+00
131.3  4.457E+02   4.290E+00
132.0  4.461E+02   3.995E+00
132.6  4.465E+02   3.715E+00
133.3  4.469E+02   3.449E+00
133.9  4.472E+02   3.199E+00
134.6  4.475E+02   2.961E+00
135.2  4.478E+02   2.736E+00
135.9  4.481E+02   2.526E+00
136.5  4.484E+02   2.331E+00
137.2  4.486E+02   2.151E+00
137.8  4.488E+02   1.986E+00
138.5  4.491E+02   1.830E+00
139.1  4.492E+02   1.687E+00
139.8  4.494E+02   1.556E+00
140.4  4.496E+02   1.437E+00
141.1  4.497E+02   1.330E+00
141.7  4.499E+02   1.234E+00
142.4  4.500E+02   1.140E+00
143.0  4.501E+02   1.051E+00
143.7  4.502E+02   9.687E-01
144.3  4.503E+02   8.904E-01
145.0  4.504E+02   8.156E-01
145.6  4.505E+02   7.446E-01
146.3  4.506E+02   6.847E-01
146.9  4.507E+02   6.305E-01
147.6  4.507E+02   5.815E-01
148.2  4.508E+02   5.376E-01
148.9  4.509E+02   4.985E-01
149.5  4.509E+02   4.635E-01
150.2  4.509E+02   4.305E-01
150.8  4.510E+02   4.003E-01
151.5  4.510E+02   3.725E-01
152.1  4.511E+02   3.467E-01
152.8  4.511E+02   3.224E-01
153.4  4.511E+02   2.998E-01
154.1  4.512E+02   2.797E-01
154.7  4.512E+02   2.609E-01
155.4  4.512E+02   2.431E-01
156.0  4.512E+02   2.260E-01
156.7  4.512E+02   2.093E-01
157.3  4.513E+02   1.939E-01
158.0  4.513E+02   1.806E-01
158.6  4.513E+02   1.683E-01
159.3  4.513E+02   1.570E-01
159.9  4.513E+02   1.464E-01
160.6  4.513E+02   1.366E-01
161.2  4.514E+02   1.277E-01
161.9  4.514E+02   1.196E-01
162.5  4.514E+02   1.122E-01
163.2  4.514E+02   1.055E-01
163.8  4.514E+02   9.928E-02
164.5  4.514E+02   9.360E-02
165.1  4.514E+02   8.847E-02
165.8  4.514E+02   8.387E-02
166.4  4.514E+02   7.970E-02
167.1  4.514E+02   7.591E-02
167.7  4.514E+02   7.245E-02
168.4  4.514E+02   6.928E-02
169.0  4.514E+02   6.551E-02
169.7  4.514E+02   6.336E-02
170.3  4.514E+02   6.125E-02
171.0  4.514E+02   5.919E-02
171.6  4.515E+02   5.717E-02
172.3  4.515E+02   5.520E-02
172.9  4.515E+02   5.350E-02
173.6  4.515E+02   5.197E-02
174.2  4.515E+02   5.053E-02
174.9  4.515E+02   4.920E-02
175.5  4.515E+02   4.797E-02
176.2  4.515E+02   4.683E-02
176.8  4.515E+02   4.580E-02
177.5  4.515E+02   4.486E-02
178.1  4.515E+02   4.403E-02
178.8  4.515E+02   4.330E-02
179.4  4.515E+02   4.251E-02
180.1  4.515E+02   4.175E-02
180.7  4.515E+02   4.105E-02
181.4  4.515E+02   4.041E-02
182.0  4.515E+02   3.984E-02
182.7  4.515E+02   3.933E-02
183.3  4.515E+02   3.888E-02
184.0  4.515E+02   3.850E-02
184.6  4.515E+02   3.818E-02
185.3  4.515E+02   3.792E-02
185.9  4.515E+02   3.761E-02
186.6  4.515E+02   3.729E-02
187.2  4.515E+02   3.701E-02
187.9  4.515E+02   3.676E-02
188.5  4.515E+02   3.654E-02
189.2  4.515E+02   3.636E-02
189.8  4.515E+02   3.622E-02
190.5  4.515E+02   3.610E-02
191.1  4.515E+02   3.602E-02
191.8  4.515E+02   3.598E-02
192.4  4.515E+02   3.527E-02



Variable Influent Data to Bed Number 4 is given below:
Time   Cin(1,T)    Cin(2, T)   Cin(3, T)   Cin(4, T)   Cin(5, T)   Cin(6, T)
(min)  (mg/L)      (mg/L)      (mg/L)      (mg/L)      (mg/L)      (mg/L)
0.0    2.258E-01   3.331E+02
0.7    2.258E-01   3.331E+02
1.3    2.258E-01   3.331E+02
2.0    2.258E-01   3.331E+02
2.6    2.258E-01   3.331E+02
3.3    2.258E-01   3.331E+02
3.9    2.598E-01   3.331E+02
4.6    4.035E-01   3.330E+02
5.2    6.127E-01   3.328E+02
5.9    9.161E-01   3.326E+02
6.5    1.349E+00   3.323E+02
7.2    1.964E+00   3.318E+02
7.8    2.831E+00   3.312E+02
8.5    3.980E+00   3.303E+02
9.1    5.488E+00   3.292E+02
9.8    7.464E+00   3.278E+02
10.4   1.001E+01   3.259E+02
11.1   1.322E+01   3.235E+02
11.7   1.714E+01   3.206E+02
12.4   2.175E+01   3.172E+02
13.0   2.693E+01   3.134E+02
13.7   3.244E+01   3.093E+02
14.3   3.784E+01   3.053E+02
15.0   4.274E+01   3.017E+02
15.6   4.698E+01   2.986E+02
16.3   5.073E+01   2.958E+02
16.9   5.410E+01   2.933E+02
17.6   5.739E+01   2.909E+02
18.2   6.078E+01   2.884E+02
18.9   6.436E+01   2.858E+02
19.5   6.808E+01   2.830E+02
20.2   7.198E+01   2.801E+02
20.8   7.610E+01   2.771E+02
21.5   8.043E+01   2.739E+02
22.1   8.499E+01   2.705E+02
22.8   8.977E+01   2.670E+02
23.4   9.475E+01   2.633E+02
24.1   9.992E+01   2.595E+02
24.7   1.052E+02   2.556E+02
25.4   1.106E+02   2.517E+02
26.0   1.160E+02   2.477E+02
26.7   1.215E+02   2.436E+02
27.3   1.271E+02   2.394E+02
28.0   1.328E+02   2.352E+02
28.6   1.386E+02   2.310E+02
29.3   1.443E+02   2.267E+02
29.9   1.501E+02   2.225E+02
30.6   1.557E+02   2.184E+02
31.2   1.612E+02   2.143E+02
31.9   1.665E+02   2.104E+02
32.5   1.716E+02   2.066E+02
33.2   1.765E+02   2.030E+02
33.8   1.811E+02   1.996E+02
34.5   1.854E+02   1.965E+02
35.1   1.893E+02   1.935E+02
35.8   1.930E+02   1.908E+02
36.4   1.964E+02   1.883E+02
37.1   1.996E+02   1.860E+02
37.7   2.025E+02   1.838E+02
38.4   2.053E+02   1.818E+02
39.0   2.079E+02   1.798E+02
39.7   2.105E+02   1.779E+02
40.3   2.130E+02   1.760E+02
41.0   2.155E+02   1.742E+02
41.6   2.180E+02   1.723E+02
42.3   2.205E+02   1.705E+02
42.9   2.229E+02   1.687E+02
43.6   2.253E+02   1.669E+02
44.2   2.278E+02   1.651E+02
44.9   2.303E+02   1.633E+02
45.5   2.328E+02   1.615E+02
46.2   2.352E+02   1.596E+02
46.8   2.377E+02   1.578E+02
47.5   2.402E+02   1.560E+02
48.1   2.427E+02   1.541E+02
48.8   2.452E+02   1.523E+02
49.4   2.477E+02   1.504E+02
50.1   2.502E+02   1.486E+02
50.7   2.527E+02   1.467E+02
51.4   2.553E+02   1.449E+02
52.0   2.578E+02   1.430E+02
52.7   2.604E+02   1.411E+02
53.3   2.629E+02   1.392E+02
54.0   2.654E+02   1.374E+02
54.6   2.680E+02   1.355E+02
55.3   2.705E+02   1.336E+02
55.9   2.730E+02   1.318E+02
56.6   2.755E+02   1.299E+02
57.2   2.780E+02   1.281E+02
57.9   2.805E+02   1.263E+02
58.5   2.829E+02   1.245E+02
59.2   2.854E+02   1.227E+02
59.8   2.878E+02   1.209E+02
60.5   2.902E+02   1.191E+02
61.1   2.925E+02   1.174E+02
61.8   2.948E+02   1.157E+02
62.4   2.971E+02   1.140E+02
63.1   2.993E+02   1.124E+02
63.7   3.014E+02   1.108E+02
64.4   3.036E+02   1.092E+02
65.0   3.057E+02   1.077E+02
65.7   3.077E+02   1.062E+02
66.3   3.097E+02   1.047E+02
67.0   3.116E+02   1.033E+02
