Time (min) BVF         C/CT(1)     C/CT(2)

1.000E-04  7.654E-05   -2.3322E-04 1.0002E+00
1.260E+00  9.645E-01   -3.5243E-05 1.0000E+00
2.520E+00  1.929E+00   -1.7435E-05 1.0000E+00
3.780E+00  2.893E+00   7.3044E-06  9.9999E-01
5.040E+00  3.858E+00   1.9489E-05  9.9998E-01
6.300E+00  4.822E+00   2.6306E-05  9.9997E-01
7.560E+00  5.787E+00   4.5953E-05  9.9995E-01
8.820E+00  6.751E+00   9.1916E-05  9.9991E-01
1.008E+01  7.716E+00   4.5522E-07  1.0000E+00
1.134E+01  8.680E+00   1.0919E-04  9.9989E-01
1.260E+01  9.645E+00   1.6898E-04  9.9983E-01
1.386E+01  1.061E+01   9.0040E-05  9.9991E-01
1.512E+01  1.157E+01   7.1569E-05  9.9993E-01
1.638E+01  1.254E+01   7.1631E-05  9.9993E-01
1.764E+01  1.350E+01   6.2608E-05  9.9994E-01
1.890E+01  1.447E+01   4.9882E-05  9.9995E-01
2.016E+01  1.543E+01   3.7775E-05  9.9996E-01
2.142E+01  1.640E+01   2.7463E-05  9.9997E-01
2.268E+01  1.736E+01   1.9417E-05  9.9998E-01
2.394E+01  1.832E+01   1.0786E-05  9.9999E-01
2.520E+01  1.929E+01   1.1576E-06  1.0000E+00
2.646E+01  2.025E+01   2.5594E-05  9.9997E-01
2.772E+01  2.122E+01   -1.0414E-07 1.0000E+00
2.898E+01  2.218E+01   -7.4717E-06 1.0000E+00
3.024E+01  2.315E+01   -1.5707E-05 1.0000E+00
3.150E+01  2.411E+01   5.4255E-06  9.9999E-01
3.276E+01  2.508E+01   1.9364E-04  9.9981E-01
3.402E+01  2.604E+01   8.7384E-05  9.9991E-01
3.528E+01  2.700E+01   1.0934E-04  9.9989E-01
3.654E+01  2.797E+01   1.5146E-04  9.9985E-01
3.780E+01  2.893E+01   1.9595E-04  9.9980E-01
3.906E+01  2.990E+01   2.4301E-04  9.9976E-01
4.032E+01  3.086E+01   2.9426E-04  9.9971E-01
4.158E+01  3.183E+01   3.4770E-04  9.9965E-01
4.284E+01  3.279E+01   4.0847E-04  9.9959E-01
4.410E+01  3.376E+01   4.7839E-04  9.9952E-01
4.536E+01  3.472E+01   5.5521E-04  9.9944E-01
4.662E+01  3.568E+01   6.4197E-04  9.9936E-01
4.788E+01  3.665E+01   7.3866E-04  9.9926E-01
4.914E+01  3.761E+01   8.4451E-04  9.9916E-01
5.040E+01  3.858E+01   9.6166E-04  9.9904E-01
5.166E+01  3.954E+01   1.0919E-03  9.9891E-01
5.292E+01  4.051E+01   1.2325E-03  9.9877E-01
5.418E+01  4.147E+01   1.3868E-03  9.9861E-01
5.544E+01  4.244E+01   1.5542E-03  9.9845E-01
5.670E+01  4.340E+01   1.7356E-03  9.9826E-01
5.796E+01  4.437E+01   1.9319E-03  9.9807E-01
5.922E+01  4.533E+01   2.1439E-03  9.9786E-01
6.048E+01  4.629E+01   2.3724E-03  9.9763E-01
6.174E+01  4.726E+01   2.6183E-03  9.9738E-01
6.300E+01  4.822E+01   2.8825E-03  9.9712E-01
6.426E+01  4.919E+01   3.1658E-03  9.9683E-01
6.552E+01  5.015E+01   3.4691E-03  9.9653E-01
6.678E+01  5.112E+01   3.7930E-03  9.9621E-01
6.804E+01  5.208E+01   4.1383E-03  9.9586E-01
6.930E+01  5.305E+01   4.5058E-03  9.9549E-01
7.056E+01  5.401E+01   4.8965E-03  9.9510E-01
7.182E+01  5.497E+01   5.3110E-03  9.9469E-01
7.308E+01  5.594E+01   5.7502E-03  9.9425E-01
7.434E+01  5.690E+01   6.2146E-03  9.9379E-01
7.560E+01  5.787E+01   6.7051E-03  9.9329E-01
7.686E+01  5.883E+01   7.2226E-03  9.9278E-01
7.812E+01  5.980E+01   7.7679E-03  9.9223E-01
7.938E+01  6.076E+01   8.3415E-03  9.9166E-01
8.064E+01  6.173E+01   8.9442E-03  9.9106E-01
8.190E+01  6.269E+01   9.5767E-03  9.9042E-01
8.316E+01  6.365E+01   1.0240E-02  9.8976E-01
8.442E+01  6.462E+01   1.0934E-02  9.8907E-01
8.568E+01  6.558E+01   1.1661E-02  9.8834E-01
8.694E+01  6.655E+01   1.2420E-02  9.8758E-01
8.820E+01  6.751E+01   1.3212E-02  9.8679E-01
8.946E+01  6.848E+01   1.4039E-02  9.8596E-01
9.072E+01  6.944E+01   1.4900E-02  9.8510E-01
9.198E+01  7.041E+01   1.5797E-02  9.8420E-01
9.324E+01  7.137E+01   1.6729E-02  9.8327E-01
9.450E+01  7.233E+01   1.7699E-02  9.8230E-01
9.576E+01  7.330E+01   1.8706E-02  9.8129E-01
9.702E+01  7.426E+01   1.9750E-02  9.8025E-01
9.828E+01  7.523E+01   2.0833E-02  9.7917E-01
9.954E+01  7.619E+01   2.1956E-02  9.7804E-01
1.008E+02  7.716E+01   2.3118E-02  9.7688E-01
1.021E+02  7.812E+01   2.4322E-02  9.7568E-01
1.033E+02  7.909E+01   2.5566E-02  9.7443E-01
1.046E+02  8.005E+01   2.6851E-02  9.7315E-01
1.058E+02  8.101E+01   2.8178E-02  9.7182E-01
1.071E+02  8.198E+01   2.9548E-02  9.7045E-01
1.084E+02  8.294E+01   3.0961E-02  9.6904E-01
1.096E+02  8.391E+01   3.2418E-02  9.6758E-01
1.109E+02  8.487E+01   3.3920E-02  9.6608E-01
1.121E+02  8.584E+01   3.5466E-02  9.6453E-01
1.134E+02  8.680E+01   3.7057E-02  9.6294E-01
1.147E+02  8.777E+01   3.8693E-02  9.6131E-01
1.159E+02  8.873E+01   4.0376E-02  9.5962E-01
1.172E+02  8.969E+01   4.2105E-02  9.5789E-01
1.184E+02  9.066E+01   4.3881E-02  9.5612E-01
1.197E+02  9.162E+01   4.5706E-02  9.5429E-01
1.210E+02  9.259E+01   4.7578E-02  9.5242E-01
1.222E+02  9.355E+01   4.9497E-02  9.5050E-01
1.235E+02  9.452E+01   5.1465E-02  9.4853E-01
1.247E+02  9.548E+01   5.3482E-02  9.4652E-01
1.260E+02  9.645E+01   5.5549E-02  9.4445E-01
1.273E+02  9.741E+01   5.7665E-02  9.4234E-01
1.285E+02  9.837E+01   5.9831E-02  9.4017E-01
1.298E+02  9.934E+01   6.2048E-02  9.3795E-01
1.310E+02  1.003E+02   6.4313E-02  9.3569E-01
1.323E+02  1.013E+02   6.6628E-02  9.3337E-01
1.336E+02  1.022E+02   6.8995E-02  9.3101E-01
1.348E+02  1.032E+02   7.1413E-02  9.2859E-01
1.361E+02  1.042E+02   7.3882E-02  9.2612E-01
1.373E+02  1.051E+02   7.6403E-02  9.2360E-01
1.386E+02  1.061E+02   7.8977E-02  9.2102E-01
1.399E+02  1.071E+02   8.1603E-02  9.1840E-01
1.411E+02  1.080E+02   8.4283E-02  9.1572E-01
1.424E+02  1.090E+02   8.7014E-02  9.1299E-01
1.436E+02  1.099E+02   8.9796E-02  9.1020E-01
1.449E+02  1.109E+02   9.2630E-02  9.0737E-01
1.462E+02  1.119E+02   9.5518E-02  9.0448E-01
1.474E+02  1.128E+02   9.8458E-02  9.0154E-01
1.487E+02  1.138E+02   1.0145E-01  8.9855E-01
1.499E+02  1.148E+02   1.0450E-01  8.9550E-01
1.512E+02  1.157E+02   1.0760E-01  8.9240E-01
1.525E+02  1.167E+02   1.1076E-01  8.8924E-01
1.537E+02  1.177E+02   1.1397E-01  8.8603E-01
1.550E+02  1.186E+02   1.1723E-01  8.8277E-01
1.562E+02  1.196E+02   1.2054E-01  8.7946E-01
1.575E+02  1.206E+02   1.2391E-01  8.7609E-01
1.588E+02  1.215E+02   1.2733E-01  8.7267E-01
1.600E+02  1.225E+02   1.3080E-01  8.6920E-01
1.613E+02  1.235E+02   1.3433E-01  8.6567E-01
1.625E+02  1.244E+02   1.3790E-01  8.6210E-01
1.638E+02  1.254E+02   1.4154E-01  8.5846E-01
1.651E+02  1.263E+02   1.4522E-01  8.5478E-01
1.663E+02  1.273E+02   1.4896E-01  8.5104E-01
1.676E+02  1.283E+02   1.5275E-01  8.4725E-01
1.688E+02  1.292E+02   1.5659E-01  8.4341E-01
1.701E+02  1.302E+02   1.6048E-01  8.3952E-01
1.714E+02  1.312E+02   1.6443E-01  8.3557E-01
1.726E+02  1.321E+02   1.6842E-01  8.3158E-01
1.739E+02  1.331E+02   1.7246E-01  8.2754E-01
1.751E+02  1.341E+02   1.7656E-01  8.2344E-01
1.764E+02  1.350E+02   1.8071E-01  8.1929E-01
1.777E+02  1.360E+02   1.8490E-01  8.1510E-01
1.789E+02  1.370E+02   1.8915E-01  8.1085E-01
1.802E+02  1.379E+02   1.9345E-01  8.0655E-01
1.814E+02  1.389E+02   1.9779E-01  8.0221E-01
1.827E+02  1.398E+02   2.0218E-01  7.9782E-01
1.840E+02  1.408E+02   2.0661E-01  7.9339E-01
1.852E+02  1.418E+02   2.1110E-01  7.8890E-01
1.865E+02  1.427E+02   2.1563E-01  7.8437E-01
1.877E+02  1.437E+02   2.2020E-01  7.7980E-01
1.890E+02  1.447E+02   2.2483E-01  7.7517E-01
1.903E+02  1.456E+02   2.2949E-01  7.7051E-01
1.915E+02  1.466E+02   2.3421E-01  7.6579E-01
1.928E+02  1.476E+02   2.3896E-01  7.6104E-01
1.940E+02  1.485E+02   2.4376E-01  7.5624E-01
1.953E+02  1.495E+02   2.4860E-01  7.5140E-01
1.966E+02  1.505E+02   2.5348E-01  7.4652E-01
1.978E+02  1.514E+02   2.5839E-01  7.4161E-01
1.991E+02  1.524E+02   2.6335E-01  7.3665E-01
2.003E+02  1.533E+02   2.6835E-01  7.3165E-01
2.016E+02  1.543E+02   2.7339E-01  7.2661E-01
2.029E+02  1.553E+02   2.7847E-01  7.2153E-01
2.041E+02  1.562E+02   2.8359E-01  7.1641E-01
2.054E+02  1.572E+02   2.8874E-01  7.1126E-01
2.066E+02  1.582E+02   2.9392E-01  7.0608E-01
2.079E+02  1.591E+02   2.9913E-01  7.0087E-01
2.092E+02  1.601E+02   3.0438E-01  6.9562E-01
2.104E+02  1.611E+02   3.0966E-01  6.9034E-01
2.117E+02  1.620E+02   3.1498E-01  6.8502E-01
2.129E+02  1.630E+02   3.2032E-01  6.7968E-01
2.142E+02  1.640E+02   3.2570E-01  6.7430E-01
2.155E+02  1.649E+02   3.3110E-01  6.6890E-01
2.167E+02  1.659E+02   3.3653E-01  6.6347E-01
2.180E+02  1.669E+02   3.4199E-01  6.5801E-01
2.192E+02  1.678E+02   3.4747E-01  6.5253E-01
2.205E+02  1.688E+02   3.5298E-01  6.4702E-01
2.218E+02  1.697E+02   3.5851E-01  6.4149E-01
2.230E+02  1.707E+02   3.6406E-01  6.3594E-01
2.243E+02  1.717E+02   3.6963E-01  6.3037E-01
2.255E+02  1.726E+02   3.7522E-01  6.2478E-01
2.268E+02  1.736E+02   3.8084E-01  6.1916E-01
2.281E+02  1.746E+02   3.8647E-01  6.1353E-01
2.293E+02  1.755E+02   3.9212E-01  6.0788E-01
2.306E+02  1.765E+02   3.9779E-01  6.0221E-01
2.318E+02  1.775E+02   4.0346E-01  5.9654E-01
2.331E+02  1.784E+02   4.0915E-01  5.9085E-01
2.344E+02  1.794E+02   4.1485E-01  5.8515E-01
2.356E+02  1.804E+02   4.2056E-01  5.7944E-01
2.369E+02  1.813E+02   4.2628E-01  5.7372E-01
2.381E+02  1.823E+02   4.3201E-01  5.6799E-01
2.394E+02  1.832E+02   4.3774E-01  5.6226E-01
2.407E+02  1.842E+02   4.4349E-01  5.5651E-01
2.419E+02  1.852E+02   4.4923E-01  5.5077E-01
2.432E+02  1.861E+02   4.5499E-01  5.4501E-01
2.444E+02  1.871E+02   4.6074E-01  5.3926E-01
2.457E+02  1.881E+02   4.6650E-01  5.3350E-01
2.470E+02  1.890E+02   4.7226E-01  5.2774E-01
2.482E+02  1.900E+02   4.7802E-01  5.2198E-01
2.495E+02  1.910E+02   4.8378E-01  5.1622E-01
2.507E+02  1.919E+02   4.8954E-01  5.1046E-01
2.520E+02  1.929E+02   4.9530E-01  5.0470E-01
2.533E+02  1.939E+02   5.0105E-01  4.9895E-01
2.545E+02  1.948E+02   5.0679E-01  4.9321E-01
2.558E+02  1.958E+02   5.1253E-01  4.8747E-01
2.570E+02  1.967E+02   5.1826E-01  4.8174E-01
2.583E+02  1.977E+02   5.2398E-01  4.7602E-01
2.596E+02  1.987E+02   5.2969E-01  4.7031E-01
2.608E+02  1.996E+02   5.3539E-01  4.6461E-01
2.621E+02  2.006E+02   5.4108E-01  4.5892E-01
2.633E+02  2.016E+02   5.4675E-01  4.5325E-01
2.646E+02  2.025E+02   5.5241E-01  4.4759E-01
2.659E+02  2.035E+02   5.5805E-01  4.4195E-01
2.671E+02  2.045E+02   5.6367E-01  4.3633E-01
2.684E+02  2.054E+02   5.6928E-01  4.3072E-01
2.696E+02  2.064E+02   5.7487E-01  4.2513E-01
2.709E+02  2.074E+02   5.8044E-01  4.1956E-01
2.722E+02  2.083E+02   5.8600E-01  4.1400E-01
2.734E+02  2.093E+02   5.9153E-01  4.0847E-01
2.747E+02  2.103E+02   5.9704E-01  4.0296E-01
2.759E+02  2.112E+02   6.0253E-01  3.9747E-01
2.772E+02  2.122E+02   6.0799E-01  3.9201E-01
2.785E+02  2.131E+02   6.1343E-01  3.8657E-01
2.797E+02  2.141E+02   6.1884E-01  3.8116E-01
2.810E+02  2.151E+02   6.2423E-01  3.7577E-01
2.822E+02  2.160E+02   6.2957E-01  3.7043E-01
2.835E+02  2.170E+02   6.3488E-01  3.6512E-01
2.848E+02  2.180E+02   6.4016E-01  3.5984E-01
2.860E+02  2.189E+02   6.4540E-01  3.5460E-01
2.873E+02  2.199E+02   6.5061E-01  3.4939E-01
2.885E+02  2.209E+02   6.5577E-01  3.4423E-01
2.898E+02  2.218E+02   6.6090E-01  3.3910E-01
2.911E+02  2.228E+02   6.6599E-01  3.3401E-01
2.923E+02  2.238E+02   6.7103E-01  3.2897E-01
2.936E+02  2.247E+02   6.7604E-01  3.2396E-01
2.948E+02  2.257E+02   6.8104E-01  3.1896E-01
2.961E+02  2.266E+02   6.8601E-01  3.1399E-01
2.974E+02  2.276E+02   6.9095E-01  3.0905E-01
2.986E+02  2.286E+02   6.9585E-01  3.0415E-01
2.999E+02  2.295E+02   7.0072E-01  2.9928E-01
3.011E+02  2.305E+02   7.0555E-01  2.9445E-01
3.024E+02  2.315E+02   7.1035E-01  2.8965E-01
3.037E+02  2.324E+02   7.1511E-01  2.8489E-01
3.049E+02  2.334E+02   7.1984E-01  2.8016E-01
3.062E+02  2.344E+02   7.2453E-01  2.7547E-01
3.074E+02  2.353E+02   7.2915E-01  2.7085E-01
3.087E+02  2.363E+02   7.3372E-01  2.6628E-01
3.100E+02  2.373E+02   7.3825E-01  2.6175E-01
3.112E+02  2.382E+02   7.4273E-01  2.5727E-01
3.125E+02  2.392E+02   7.4716E-01  2.5284E-01
3.137E+02  2.401E+02   7.5154E-01  2.4846E-01
3.150E+02  2.411E+02   7.5587E-01  2.4413E-01
3.163E+02  2.421E+02   7.6015E-01  2.3985E-01
3.175E+02  2.430E+02   7.6437E-01  2.3563E-01
3.188E+02  2.440E+02   7.6855E-01  2.3145E-01
3.200E+02  2.450E+02   7.7270E-01  2.2730E-01
3.213E+02  2.459E+02   7.7681E-01  2.2319E-01
3.226E+02  2.469E+02   7.8086E-01  2.1914E-01
3.238E+02  2.479E+02   7.8487E-01  2.1513E-01
3.251E+02  2.488E+02   7.8883E-01  2.1117E-01
3.263E+02  2.498E+02   7.9275E-01  2.0725E-01
3.276E+02  2.508E+02   7.9661E-01  2.0339E-01
3.289E+02  2.517E+02   8.0043E-01  1.9957E-01
3.301E+02  2.527E+02   8.0420E-01  1.9580E-01
3.314E+02  2.537E+02   8.0792E-01  1.9208E-01
3.326E+02  2.546E+02   8.1159E-01  1.8841E-01
3.339E+02  2.556E+02   8.1522E-01  1.8478E-01
3.352E+02  2.565E+02   8.1879E-01  1.8121E-01
3.364E+02  2.575E+02   8.2232E-01  1.7768E-01
3.377E+02  2.585E+02   8.2580E-01  1.7420E-01
3.389E+02  2.594E+02   8.2923E-01  1.7077E-01
3.402E+02  2.604E+02   8.3261E-01  1.6739E-01
3.415E+02  2.614E+02   8.3594E-01  1.6406E-01
3.427E+02  2.623E+02   8.3922E-01  1.6078E-01
3.440E+02  2.633E+02   8.4245E-01  1.5755E-01
3.452E+02  2.643E+02   8.4564E-01  1.5436E-01
3.465E+02  2.652E+02   8.4878E-01  1.5122E-01
3.478E+02  2.662E+02   8.5187E-01  1.4813E-01
3.490E+02  2.672E+02   8.5492E-01  1.4508E-01
3.503E+02  2.681E+02   8.5792E-01  1.4208E-01
3.515E+02  2.691E+02   8.6087E-01  1.3913E-01
3.528E+02  2.700E+02   8.6377E-01  1.3623E-01
3.541E+02  2.710E+02   8.6663E-01  1.3337E-01
3.553E+02  2.720E+02   8.6944E-01  1.3056E-01
3.566E+02  2.729E+02   8.7220E-01  1.2780E-01
3.578E+02  2.739E+02   8.7493E-01  1.2507E-01
3.591E+02  2.749E+02   8.7760E-01  1.2240E-01
3.604E+02  2.758E+02   8.8023E-01  1.1977E-01
3.616E+02  2.768E+02   8.8282E-01  1.1718E-01
3.629E+02  2.778E+02   8.8536E-01  1.1464E-01
3.641E+02  2.787E+02   8.8785E-01  1.1215E-01
3.654E+02  2.797E+02   8.9030E-01  1.0970E-01
3.667E+02  2.807E+02   8.9271E-01  1.0729E-01
3.679E+02  2.816E+02   8.9507E-01  1.0493E-01
3.692E+02  2.826E+02   8.9739E-01  1.0261E-01
3.704E+02  2.836E+02   8.9968E-01  1.0032E-01
3.717E+02  2.845E+02   9.0192E-01  9.8084E-02
3.730E+02  2.855E+02   9.0411E-01  9.5886E-02
3.742E+02  2.864E+02   9.0627E-01  9.3729E-02
3.755E+02  2.874E+02   9.0839E-01  9.1613E-02
3.767E+02  2.884E+02   9.1046E-01  8.9537E-02
3.780E+02  2.893E+02   9.1250E-01  8.7501E-02
3.793E+02  2.903E+02   9.1450E-01  8.5505E-02
3.805E+02  2.913E+02   9.1645E-01  8.3548E-02
3.818E+02  2.922E+02   9.1837E-01  8.1630E-02
3.830E+02  2.932E+02   9.2025E-01  7.9746E-02
3.843E+02  2.942E+02   9.2210E-01  7.7900E-02
3.856E+02  2.951E+02   9.2391E-01  7.6091E-02
3.868E+02  2.961E+02   9.2568E-01  7.4318E-02
3.881E+02  2.971E+02   9.2742E-01  7.2581E-02
3.893E+02  2.980E+02   9.2912E-01  7.0879E-02
3.906E+02  2.990E+02   9.3079E-01  6.9213E-02
3.919E+02  2.999E+02   9.3242E-01  6.7580E-02
3.931E+02  3.009E+02   9.3402E-01  6.5982E-02
3.944E+02  3.019E+02   9.3558E-01  6.4417E-02
3.956E+02  3.028E+02   9.3712E-01  6.2884E-02
3.969E+02  3.038E+02   9.3862E-01  6.1384E-02
3.982E+02  3.048E+02   9.4009E-01  5.9915E-02
3.994E+02  3.057E+02   9.4152E-01  5.8477E-02
4.007E+02  3.067E+02   9.4293E-01  5.7071E-02
4.019E+02  3.077E+02   9.4431E-01  5.5695E-02
4.032E+02  3.086E+02   9.4565E-01  5.4348E-02
4.045E+02  3.096E+02   9.4697E-01  5.3031E-02
4.057E+02  3.106E+02   9.4826E-01  5.1743E-02
4.070E+02  3.115E+02   9.4952E-01  5.0484E-02
4.082E+02  3.125E+02   9.5075E-01  4.9251E-02
4.095E+02  3.134E+02   9.5195E-01  4.8047E-02
4.108E+02  3.144E+02   9.5313E-01  4.6868E-02
4.120E+02  3.154E+02   9.5428E-01  4.5717E-02
4.133E+02  3.163E+02   9.5541E-01  4.4591E-02
4.145E+02  3.173E+02   9.5651E-01  4.3490E-02
4.158E+02  3.183E+02   9.5759E-01  4.2414E-02
4.171E+02  3.192E+02   9.5864E-01  4.1362E-02
4.183E+02  3.202E+02   9.5967E-01  4.0335E-02
4.196E+02  3.212E+02   9.6067E-01  3.9330E-02
4.208E+02  3.221E+02   9.6165E-01  3.8350E-02
4.221E+02  3.231E+02   9.6261E-01  3.7393E-02
4.234E+02  3.241E+02   9.6354E-01  3.6457E-02
4.246E+02  3.250E+02   9.6446E-01  3.5544E-02
4.259E+02  3.260E+02   9.6535E-01  3.4652E-02
4.271E+02  3.270E+02   9.6622E-01  3.3780E-02
4.284E+02  3.279E+02   9.6707E-01  3.2929E-02
4.297E+02  3.289E+02   9.6790E-01  3.2098E-02
4.309E+02  3.298E+02   9.6871E-01  3.1287E-02
4.322E+02  3.308E+02   9.6951E-01  3.0495E-02
4.334E+02  3.318E+02   9.7028E-01  2.9722E-02
4.347E+02  3.327E+02   9.7103E-01  2.8968E-02
4.360E+02  3.337E+02   9.7177E-01  2.8232E-02
4.372E+02  3.347E+02   9.7249E-01  2.7514E-02
4.385E+02  3.356E+02   9.7319E-01  2.6813E-02
4.397E+02  3.366E+02   9.7387E-01  2.6128E-02
4.410E+02  3.376E+02   9.7454E-01  2.5460E-02
4.423E+02  3.385E+02   9.7519E-01  2.4808E-02
4.435E+02  3.395E+02   9.7583E-01  2.4171E-02
4.448E+02  3.405E+02   9.7645E-01  2.3551E-02
4.460E+02  3.414E+02   9.7705E-01  2.2947E-02
4.473E+02  3.424E+02   9.7764E-01  2.2358E-02
4.486E+02  3.433E+02   9.7822E-01  2.1783E-02
4.498E+02  3.443E+02   9.7878E-01  2.1223E-02
4.500E+02  3.444E+02   9.7886E-01  2.1145E-02
