Variable Influent Data to Bed Number 2 is given below:
Time   Cin(1,T)    Cin(2, T)   Cin(3, T)   Cin(4, T)   Cin(5, T)   Cin(6, T)
(min)  (mg/L)      (mg/L)      (mg/L)      (mg/L)      (mg/L)      (mg/L)
0.0    1.198E-01   1.052E+01
1.3    3.423E-01   1.051E+01
2.5    1.696E+00   1.045E+01
3.8    3.650E+00   1.036E+01
5.0    5.994E+00   1.026E+01
6.3    8.703E+00   1.014E+01
7.6    1.174E+01   1.001E+01
8.8    1.506E+01   9.863E+00
10.1   1.857E+01   9.708E+00
11.3   2.225E+01   9.547E+00
12.6   2.603E+01   9.381E+00
13.9   2.988E+01   9.211E+00
15.1   3.376E+01   9.041E+00
16.4   3.766E+01   8.870E+00
17.6   4.154E+01   8.699E+00
18.9   4.540E+01   8.529E+00
20.2   4.922E+01   8.362E+00
21.4   5.299E+01   8.196E+00
22.7   5.670E+01   8.033E+00
23.9   6.036E+01   7.872E+00
25.2   6.395E+01   7.714E+00
26.5   6.748E+01   7.559E+00
27.7   7.095E+01   7.407E+00
29.0   7.434E+01   7.258E+00
30.2   7.767E+01   7.112E+00
31.5   8.094E+01   6.968E+00
32.8   8.413E+01   6.828E+00
34.0   8.727E+01   6.690E+00
35.3   9.033E+01   6.556E+00
36.5   9.333E+01   6.424E+00
37.8   9.626E+01   6.295E+00
39.1   9.914E+01   6.169E+00
40.3   1.019E+02   6.045E+00
41.6   1.047E+02   5.924E+00
42.8   1.074E+02   5.806E+00
44.1   1.100E+02   5.691E+00
45.4   1.126E+02   5.578E+00
46.6   1.151E+02   5.467E+00
47.9   1.176E+02   5.359E+00
49.1   1.200E+02   5.253E+00
50.4   1.224E+02   5.149E+00
51.7   1.247E+02   5.047E+00
52.9   1.269E+02   4.948E+00
54.2   1.291E+02   4.851E+00
55.4   1.313E+02   4.755E+00
56.7   1.334E+02   4.662E+00
58.0   1.355E+02   4.570E+00
59.2   1.376E+02   4.480E+00
60.5   1.396E+02   4.392E+00
61.7   1.415E+02   4.306E+00
63.0   1.435E+02   4.221E+00
64.3   1.454E+02   4.138E+00
65.5   1.472E+02   4.056E+00
66.8   1.490E+02   3.976E+00
68.0   1.508E+02   3.897E+00
69.3   1.526E+02   3.820E+00
70.6   1.543E+02   3.744E+00
71.8   1.560E+02   3.670E+00
73.1   1.577E+02   3.597E+00
74.3   1.593E+02   3.525E+00
75.6   1.609E+02   3.454E+00
76.9   1.625E+02   3.385E+00
78.1   1.641E+02   3.316E+00
79.4   1.656E+02   3.249E+00
80.6   1.671E+02   3.183E+00
81.9   1.686E+02   3.118E+00
83.2   1.700E+02   3.054E+00
84.4   1.715E+02   2.991E+00
85.7   1.729E+02   2.929E+00
86.9   1.743E+02   2.869E+00
88.2   1.756E+02   2.809E+00
89.5   1.770E+02   2.750E+00
90.7   1.783E+02   2.692E+00
92.0   1.796E+02   2.635E+00
93.2   1.808E+02   2.579E+00
94.5   1.821E+02   2.524E+00
95.8   1.833E+02   2.469E+00
97.0   1.846E+02   2.416E+00
98.3   1.858E+02   2.363E+00
99.5   1.870E+02   2.310E+00
100.8  1.881E+02   2.259E+00
102.1  1.893E+02   2.209E+00
103.3  1.904E+02   2.160E+00
104.6  1.915E+02   2.112E+00
105.8  1.926E+02   2.065E+00
107.1  1.936E+02   2.019E+00
108.4  1.947E+02   1.972E+00
109.6  1.957E+02   1.926E+00
110.9  1.967E+02   1.881E+00
112.1  1.978E+02   1.836E+00
113.4  1.988E+02   1.791E+00
114.7  1.998E+02   1.747E+00
115.9  2.008E+02   1.705E+00
117.2  2.017E+02   1.663E+00
118.4  2.026E+02   1.623E+00
119.7  2.035E+02   1.584E+00
121.0  2.044E+02   1.546E+00
122.2  2.052E+02   1.509E+00
123.5  2.060E+02   1.473E+00
124.7  2.069E+02   1.437E+00
126.0  2.077E+02   1.401E+00
127.3  2.085E+02   1.365E+00
128.5  2.093E+02   1.330E+00
129.8  2.101E+02   1.296E+00
131.0  2.108E+02   1.262E+00
132.3  2.116E+02   1.228E+00
133.6  2.123E+02   1.196E+00
134.8  2.130E+02   1.165E+00
136.1  2.137E+02   1.134E+00
137.3  2.144E+02   1.104E+00
138.6  2.151E+02   1.074E+00
139.9  2.158E+02   1.045E+00
141.1  2.164E+02   1.017E+00
142.4  2.170E+02   9.893E-01
143.6  2.176E+02   9.622E-01
144.9  2.183E+02   9.356E-01
146.2  2.188E+02   9.097E-01
147.4  2.194E+02   8.843E-01
148.7  2.200E+02   8.595E-01
149.9  2.205E+02   8.353E-01
151.2  2.211E+02   8.117E-01
152.5  2.216E+02   7.887E-01
153.7  2.221E+02   7.662E-01
155.0  2.226E+02   7.443E-01
156.2  2.231E+02   7.230E-01
157.5  2.236E+02   7.021E-01
158.8  2.240E+02   6.817E-01
160.0  2.245E+02   6.619E-01
161.3  2.249E+02   6.425E-01
162.5  2.254E+02   6.236E-01
163.8  2.258E+02   6.052E-01
165.1  2.262E+02   5.873E-01
166.3  2.266E+02   5.699E-01
167.6  2.270E+02   5.529E-01
168.8  2.273E+02   5.364E-01
170.1  2.277E+02   5.203E-01
171.4  2.281E+02   5.047E-01
172.6  2.284E+02   4.894E-01
173.9  2.287E+02   4.746E-01
175.1  2.291E+02   4.602E-01
176.4  2.294E+02   4.462E-01
177.7  2.297E+02   4.326E-01
178.9  2.300E+02   4.193E-01
180.2  2.303E+02   4.065E-01
181.4  2.306E+02   3.940E-01
182.7  2.309E+02   3.818E-01
184.0  2.311E+02   3.700E-01
185.2  2.314E+02   3.586E-01
186.5  2.316E+02   3.474E-01
187.7  2.319E+02   3.366E-01
189.0  2.321E+02   3.261E-01
190.3  2.324E+02   3.159E-01
191.5  2.326E+02   3.060E-01
192.8  2.328E+02   2.964E-01
194.0  2.330E+02   2.870E-01
195.3  2.332E+02   2.780E-01
196.6  2.334E+02   2.692E-01
197.8  2.336E+02   2.607E-01
199.1  2.338E+02   2.525E-01
200.3  2.340E+02   2.445E-01
201.6  2.342E+02   2.367E-01
202.9  2.343E+02   2.292E-01
204.1  2.345E+02   2.218E-01
205.4  2.347E+02   2.148E-01
206.6  2.348E+02   2.079E-01
207.9  2.350E+02   2.012E-01
209.2  2.351E+02   1.948E-01
210.4  2.353E+02   1.885E-01
211.7  2.354E+02   1.825E-01
212.9  2.355E+02   1.766E-01
214.2  2.357E+02   1.710E-01
215.5  2.358E+02   1.654E-01
216.7  2.359E+02   1.601E-01
218.0  2.360E+02   1.549E-01
219.2  2.361E+02   1.499E-01
220.5  2.362E+02   1.450E-01
221.8  2.364E+02   1.404E-01
223.0  2.365E+02   1.358E-01
224.3  2.366E+02   1.314E-01
225.5  2.367E+02   1.272E-01
226.8  2.368E+02   1.231E-01
228.1  2.368E+02   1.191E-01
229.3  2.369E+02   1.152E-01
230.6  2.370E+02   1.114E-01
231.8  2.371E+02   1.078E-01
233.1  2.372E+02   1.043E-01
234.4  2.373E+02   1.009E-01
235.6  2.373E+02   9.764E-02
236.9  2.374E+02   9.447E-02
238.1  2.375E+02   9.140E-02
239.4  2.375E+02   8.843E-02
240.7  2.376E+02   8.556E-02
241.9  2.377E+02   8.277E-02
243.2  2.377E+02   8.007E-02
244.4  2.378E+02   7.745E-02
245.7  2.378E+02   7.492E-02
247.0  2.379E+02   7.249E-02
248.2  2.380E+02   7.014E-02
249.5  2.380E+02   6.787E-02
250.7  2.381E+02   6.567E-02
252.0  2.381E+02   6.354E-02
253.3  2.382E+02   6.147E-02
254.5  2.382E+02   5.948E-02
255.8  2.382E+02   5.754E-02
257.0  2.383E+02   5.566E-02
258.3  2.383E+02   5.385E-02
259.6  2.384E+02   5.211E-02
260.8  2.384E+02   5.043E-02
262.1  2.384E+02   4.881E-02
263.3  2.385E+02   4.724E-02
264.6  2.385E+02   4.572E-02
265.9  2.385E+02   4.424E-02
267.1  2.386E+02   4.282E-02
268.4  2.386E+02   4.144E-02
269.6  2.386E+02   4.009E-02
270.9  2.387E+02   3.880E-02
272.2  2.387E+02   3.757E-02
273.4  2.387E+02   3.637E-02
274.7  2.388E+02   3.521E-02
275.9  2.388E+02   3.409E-02
277.2  2.388E+02   3.301E-02
278.5  2.388E+02   3.196E-02
279.7  2.388E+02   3.095E-02
281.0  2.389E+02   2.996E-02
282.2  2.389E+02   2.901E-02
283.5  2.389E+02   2.809E-02
284.8  2.389E+02   2.721E-02
286.0  2.390E+02   2.636E-02
287.3  2.390E+02   2.554E-02
288.5  2.390E+02   2.475E-02
289.8  2.390E+02   2.398E-02
291.1  2.390E+02   2.323E-02
292.3  2.390E+02   2.251E-02
293.6  2.391E+02   2.182E-02
294.8  2.391E+02   2.114E-02
296.1  2.391E+02   2.049E-02
297.4  2.391E+02   1.986E-02
298.6  2.391E+02   1.926E-02
299.9  2.391E+02   1.868E-02
301.1  2.391E+02   1.812E-02
302.4  2.392E+02   1.757E-02
303.7  2.392E+02   1.705E-02
304.9  2.392E+02   1.654E-02
306.2  2.392E+02   1.604E-02
307.4  2.392E+02   1.556E-02
308.7  2.392E+02   1.510E-02
310.0  2.392E+02   1.466E-02
311.2  2.392E+02   1.423E-02
312.5  2.392E+02   1.382E-02
313.7  2.392E+02   1.343E-02
315.0  2.393E+02   1.304E-02
316.3  2.393E+02   1.267E-02
317.5  2.393E+02   1.231E-02
318.8  2.393E+02   1.196E-02
320.0  2.393E+02   1.162E-02
321.3  2.393E+02   1.129E-02
322.6  2.393E+02   1.098E-02
323.8  2.393E+02   1.068E-02
325.1  2.393E+02   1.039E-02
326.3  2.393E+02   1.011E-02
327.6  2.393E+02   9.840E-03
328.9  2.393E+02   9.577E-03
330.1  2.393E+02   9.323E-03
331.4  2.393E+02   9.077E-03
332.6  2.394E+02   8.838E-03
333.9  2.394E+02   8.609E-03
335.2  2.394E+02   8.389E-03
336.4  2.394E+02   8.177E-03
337.7  2.394E+02   7.972E-03
338.9  2.394E+02   7.774E-03
340.2  2.394E+02   7.583E-03
341.5  2.394E+02   7.398E-03
342.7  2.394E+02   7.219E-03
344.0  2.394E+02   7.046E-03
345.2  2.394E+02   6.877E-03
346.5  2.394E+02   6.716E-03
347.8  2.394E+02   6.561E-03
349.0  2.394E+02   6.412E-03
350.3  2.394E+02   6.268E-03
351.5  2.394E+02   6.129E-03
352.8  2.394E+02   5.994E-03
354.1  2.394E+02   5.864E-03
355.3  2.394E+02   5.738E-03
356.6  2.394E+02   5.616E-03
357.8  2.394E+02   5.498E-03
359.1  2.394E+02   5.384E-03
360.4  2.394E+02   5.276E-03
361.6  2.394E+02   5.171E-03
362.9  2.394E+02   5.069E-03
364.1  2.394E+02   4.972E-03
365.4  2.394E+02   4.877E-03
366.7  2.394E+02   4.786E-03
367.9  2.394E+02   4.697E-03
369.2  2.394E+02   4.611E-03
370.4  2.394E+02   4.528E-03
371.7  2.395E+02   4.448E-03
373.0  2.395E+02   4.372E-03
374.2  2.395E+02   4.299E-03
375.5  2.395E+02   4.227E-03
376.7  2.395E+02   4.159E-03
378.0  2.395E+02   4.092E-03
379.3  2.395E+02   4.028E-03
380.5  2.395E+02   3.966E-03
381.8  2.395E+02   3.906E-03
383.0  2.395E+02   3.848E-03
384.3  2.395E+02   3.792E-03
385.6  2.395E+02   3.738E-03
386.8  2.395E+02   3.687E-03
388.1  2.395E+02   3.637E-03
389.3  2.395E+02   3.589E-03
390.6  2.395E+02   3.542E-03
391.9  2.395E+02   3.497E-03
393.1  2.395E+02   3.454E-03
394.4  2.395E+02   3.411E-03
395.6  2.395E+02   3.371E-03
396.9  2.395E+02   3.323E-03
398.2  2.395E+02   3.288E-03
399.4  2.395E+02   3.253E-03
400.7  2.395E+02   3.220E-03
401.9  2.395E+02   3.187E-03
403.2  2.395E+02   3.156E-03
404.5  2.395E+02   3.124E-03
405.7  2.395E+02   3.094E-03
407.0  2.395E+02   3.065E-03
408.2  2.395E+02   3.036E-03
409.5  2.395E+02   3.009E-03
410.8  2.395E+02   2.982E-03
412.0  2.395E+02   2.956E-03
413.3  2.395E+02   2.931E-03
414.5  2.395E+02   2.907E-03
415.8  2.395E+02   2.883E-03
417.1  2.395E+02   2.861E-03
418.3  2.395E+02   2.839E-03
419.6  2.395E+02   2.818E-03
420.8  2.395E+02   2.798E-03
422.1  2.395E+02   2.779E-03
423.4  2.395E+02   2.759E-03
424.6  2.395E+02   2.741E-03
425.9  2.395E+02   2.723E-03
427.1  2.395E+02   2.705E-03
428.4  2.395E+02   2.689E-03
429.7  2.395E+02   2.673E-03
430.9  2.395E+02   2.657E-03
432.2  2.395E+02   2.643E-03
433.4  2.395E+02   2.629E-03
434.7  2.395E+02   2.615E-03
436.0  2.395E+02   2.601E-03
437.2  2.395E+02   2.588E-03
438.5  2.395E+02   2.576E-03
439.7  2.395E+02   2.564E-03
441.0  2.395E+02   2.552E-03
442.3  2.395E+02   2.541E-03
443.5  2.395E+02   2.531E-03
444.8  2.395E+02   2.520E-03
446.0  2.395E+02   2.511E-03
447.3  2.395E+02   2.485E-03
448.6  2.395E+02   2.479E-03
449.8  2.395E+02   2.473E-03
450.0  2.395E+02   2.472E-03



Variable Influent Data to Bed Number 3 is given below:
Time   Cin(1,T)    Cin(2, T)   Cin(3, T)   Cin(4, T)   Cin(5, T)   Cin(6, T)
(min)  (mg/L)      (mg/L)      (mg/L)      (mg/L)      (mg/L)      (mg/L)
0.0    1.198E-01   1.052E+01
1.3    1.198E-01   1.052E+01
2.5    1.198E-01   1.052E+01
3.8    1.198E-01   1.052E+01
5.0    1.198E-01   1.052E+01
6.3    1.198E-01   1.052E+01
7.6    1.198E-01   1.052E+01
8.8    1.198E-01   1.052E+01
10.1   1.198E-01   1.052E+01
11.3   1.198E-01   1.052E+01
12.6   1.198E-01   1.052E+01
13.9   1.198E-01   1.052E+01
15.1   1.198E-01   1.052E+01
16.4   1.198E-01   1.052E+01
17.6   1.198E-01   1.052E+01
18.9   1.198E-01   1.052E+01
20.2   1.694E-01   1.052E+01
21.4   2.489E-01   1.051E+01
22.7   3.517E-01   1.051E+01
23.9   4.798E-01   1.050E+01
25.2   6.357E-01   1.050E+01
26.5   8.219E-01   1.049E+01
27.7   1.041E+00   1.048E+01
29.0   1.295E+00   1.047E+01
30.2   1.589E+00   1.045E+01
31.5   1.926E+00   1.044E+01
32.8   2.310E+00   1.042E+01
34.0   2.743E+00   1.040E+01
35.3   3.229E+00   1.038E+01
36.5   3.772E+00   1.036E+01
37.8   4.374E+00   1.033E+01
39.1   5.037E+00   1.030E+01
40.3   5.764E+00   1.027E+01
41.6   6.553E+00   1.024E+01
42.8   7.407E+00   1.020E+01
44.1   8.324E+00   1.016E+01
45.4   9.307E+00   1.012E+01
46.6   1.035E+01   1.007E+01
47.9   1.146E+01   1.002E+01
49.1   1.264E+01   9.969E+00
50.4   1.387E+01   9.915E+00
51.7   1.517E+01   9.858E+00
52.9   1.652E+01   9.798E+00
54.2   1.793E+01   9.736E+00
55.4   1.939E+01   9.672E+00
56.7   2.090E+01   9.606E+00
58.0   2.246E+01   9.537E+00
59.2   2.407E+01   9.467E+00
60.5   2.572E+01   9.394E+00
61.7   2.741E+01   9.320E+00
63.0   2.914E+01   9.244E+00
64.3   3.091E+01   9.166E+00
65.5   3.271E+01   9.087E+00
66.8   3.455E+01   9.006E+00
68.0   3.642E+01   8.924E+00
69.3   3.832E+01   8.841E+00
70.6   4.024E+01   8.756E+00
71.8   4.219E+01   8.670E+00
73.1   4.417E+01   8.584E+00
74.3   4.616E+01   8.496E+00
75.6   4.817E+01   8.408E+00
76.9   5.020E+01   8.319E+00
78.1   5.224E+01   8.229E+00
79.4   5.429E+01   8.139E+00
80.6   5.636E+01   8.048E+00
81.9   5.845E+01   7.956E+00
83.2   6.054E+01   7.865E+00
84.4   6.263E+01   7.772E+00
85.7   6.474E+01   7.680E+00
86.9   6.685E+01   7.587E+00
88.2   6.897E+01   7.494E+00
89.5   7.108E+01   7.401E+00
90.7   7.320E+01   7.308E+00
92.0   7.532E+01   7.215E+00
93.2   7.744E+01   7.122E+00
94.5   7.955E+01   7.029E+00
95.8   8.167E+01   6.936E+00
97.0   8.378E+01   6.843E+00
98.3   8.589E+01   6.751E+00
99.5   8.799E+01   6.658E+00
100.8  9.009E+01   6.566E+00
102.1  9.219E+01   6.474E+00
103.3  9.427E+01   6.382E+00
104.6  9.635E+01   6.291E+00
105.8  9.841E+01   6.201E+00
107.1  1.005E+02   6.111E+00
108.4  1.025E+02   6.021E+00
109.6  1.045E+02   5.932E+00
110.9  1.065E+02   5.843E+00
112.1  1.086E+02   5.755E+00
113.4  1.106E+02   5.667E+00
114.7  1.126E+02   5.579E+00
115.9  1.146E+02   5.491E+00
117.2  1.165E+02   5.404E+00
118.4  1.185E+02   5.318E+00
119.7  1.204E+02   5.233E+00
121.0  1.224E+02   5.149E+00
122.2  1.243E+02   5.065E+00
123.5  1.261E+02   4.983E+00
124.7  1.280E+02   4.901E+00
126.0  1.298E+02   4.820E+00
127.3  1.317E+02   4.739E+00
128.5  1.335E+02   4.658E+00
129.8  1.354E+02   4.578E+00
131.0  1.372E+02   4.497E+00
132.3  1.390E+02   4.418E+00
133.6  1.408E+02   4.340E+00
134.8  1.425E+02   4.263E+00
136.1  1.443E+02   4.186E+00
137.3  1.460E+02   4.111E+00
138.6  1.477E+02   4.037E+00
139.9  1.493E+02   3.963E+00
141.1  1.510E+02   3.890E+00
142.4  1.527E+02   3.817E+00
143.6  1.543E+02   3.745E+00
144.9  1.559E+02   3.674E+00
146.2  1.575E+02   3.604E+00
147.4  1.591E+02   3.534E+00
148.7  1.607E+02   3.465E+00
149.9  1.622E+02   3.397E+00
151.2  1.638E+02   3.330E+00
152.5  1.653E+02   3.263E+00
153.7  1.668E+02   3.198E+00
155.0  1.682E+02   3.133E+00
156.2  1.697E+02   3.069E+00
157.5  1.711E+02   3.006E+00
158.8  1.726E+02   2.943E+00
160.0  1.740E+02   2.882E+00
161.3  1.753E+02   2.821E+00
162.5  1.767E+02   2.761E+00
163.8  1.781E+02   2.702E+00
165.1  1.794E+02   2.643E+00
166.3  1.807E+02   2.586E+00
167.6  1.820E+02   2.529E+00
168.8  1.833E+02   2.473E+00
170.1  1.845E+02   2.417E+00
171.4  1.858E+02   2.363E+00
172.6  1.870E+02   2.309E+00
173.9  1.882E+02   2.257E+00
175.1  1.894E+02   2.205E+00
176.4  1.905E+02   2.153E+00
177.7  1.917E+02   2.103E+00
178.9  1.928E+02   2.054E+00
180.2  1.939E+02   2.005E+00
181.4  1.950E+02   1.957E+00
182.7  1.961E+02   1.910E+00
184.0  1.971E+02   1.864E+00
185.2  1.982E+02   1.819E+00
186.5  1.992E+02   1.774E+00
187.7  2.002E+02   1.730E+00
189.0  2.012E+02   1.687E+00
190.3  2.021E+02   1.644E+00
191.5  2.031E+02   1.603E+00
192.8  2.040E+02   1.562E+00
194.0  2.049E+02   1.522E+00
195.3  2.058E+02   1.483E+00
196.6  2.067E+02   1.444E+00
197.8  2.075E+02   1.406E+00
199.1  2.084E+02   1.369E+00
200.3  2.092E+02   1.333E+00
201.6  2.100E+02   1.298E+00
202.9  2.108E+02   1.263E+00
204.1  2.116E+02   1.229E+00
205.4  2.123E+02   1.196E+00
206.6  2.131E+02   1.164E+00
207.9  2.138E+02   1.132E+00
209.2  2.145E+02   1.101E+00
210.4  2.152E+02   1.070E+00
211.7  2.159E+02   1.041E+00
212.9  2.165E+02   1.012E+00
214.2  2.172E+02   9.834E-01
215.5  2.178E+02   9.558E-01
216.7  2.184E+02   9.288E-01
218.0  2.190E+02   9.024E-01
219.2  2.196E+02   8.765E-01
220.5  2.202E+02   8.513E-01
221.8  2.207E+02   8.266E-01
223.0  2.213E+02   8.024E-01
224.3  2.218E+02   7.790E-01
225.5  2.223E+02   7.562E-01
226.8  2.228E+02   7.340E-01
228.1  2.233E+02   7.123E-01
229.3  2.238E+02   6.912E-01
230.6  2.243E+02   6.707E-01
231.8  2.247E+02   6.506E-01
233.1  2.252E+02   6.311E-01
234.4  2.256E+02   6.122E-01
235.6  2.260E+02   5.937E-01
236.9  2.264E+02   5.757E-01
238.1  2.268E+02   5.582E-01
239.4  2.272E+02   5.412E-01
240.7  2.276E+02   5.247E-01
241.9  2.280E+02   5.086E-01
243.2  2.283E+02   4.930E-01
244.4  2.287E+02   4.778E-01
245.7  2.290E+02   4.631E-01
247.0  2.293E+02   4.488E-01
248.2  2.297E+02   4.349E-01
249.5  2.300E+02   4.214E-01
250.7  2.303E+02   4.082E-01
252.0  2.305E+02   3.955E-01
253.3  2.308E+02   3.831E-01
254.5  2.311E+02   3.711E-01
255.8  2.314E+02   3.594E-01
257.0  2.316E+02   3.481E-01
258.3  2.319E+02   3.371E-01
259.6  2.321E+02   3.264E-01
260.8  2.324E+02   3.160E-01
262.1  2.326E+02   3.060E-01
263.3  2.328E+02   2.962E-01
264.6  2.330E+02   2.868E-01
265.9  2.332E+02   2.777E-01
267.1  2.334E+02   2.688E-01
268.4  2.336E+02   2.602E-01
269.6  2.338E+02   2.518E-01
270.9  2.340E+02   2.437E-01
272.2  2.342E+02   2.359E-01
273.4  2.344E+02   2.282E-01
274.7  2.345E+02   2.209E-01
275.9  2.347E+02   2.138E-01
277.2  2.348E+02   2.069E-01
278.5  2.350E+02   2.002E-01
279.7  2.351E+02   1.937E-01
281.0  2.353E+02   1.874E-01
282.2  2.354E+02   1.814E-01
283.5  2.356E+02   1.755E-01
284.8  2.357E+02   1.697E-01
286.0  2.358E+02   1.642E-01
287.3  2.359E+02   1.588E-01
288.5  2.361E+02   1.537E-01
289.8  2.362E+02   1.487E-01
291.1  2.363E+02   1.438E-01
292.3  2.364E+02   1.392E-01
293.6  2.365E+02   1.346E-01
294.8  2.366E+02   1.302E-01
296.1  2.367E+02   1.260E-01
297.4  2.368E+02   1.218E-01
298.6  2.369E+02   1.178E-01
299.9  2.370E+02   1.140E-01
301.1  2.370E+02   1.102E-01
302.4  2.371E+02   1.066E-01
303.7  2.372E+02   1.032E-01
304.9  2.373E+02   9.979E-02
306.2  2.374E+02   9.653E-02
307.4  2.374E+02   9.336E-02
308.7  2.375E+02   9.030E-02
310.0  2.376E+02   8.733E-02
311.2  2.376E+02   8.444E-02
312.5  2.377E+02   8.168E-02
313.7  2.378E+02   7.902E-02
315.0  2.378E+02   7.644E-02
316.3  2.379E+02   7.395E-02
317.5  2.379E+02   7.153E-02
318.8  2.380E+02   6.920E-02
320.0  2.380E+02   6.694E-02
321.3  2.381E+02   6.474E-02
322.6  2.381E+02   6.262E-02
323.8  2.382E+02   6.056E-02
325.1  2.382E+02   5.859E-02
326.3  2.383E+02   5.668E-02
327.6  2.383E+02   5.484E-02
328.9  2.383E+02   5.307E-02
330.1  2.384E+02   5.134E-02
331.4  2.384E+02   4.968E-02
332.6  2.385E+02   4.807E-02
333.9  2.385E+02   4.650E-02
335.2  2.385E+02   4.499E-02
336.4  2.386E+02   4.352E-02
337.7  2.386E+02   4.211E-02
338.9  2.386E+02   4.076E-02
340.2  2.387E+02   3.945E-02
341.5  2.387E+02   3.819E-02
342.7  2.387E+02   3.696E-02
344.0  2.387E+02   3.578E-02
345.2  2.388E+02   3.463E-02
346.5  2.388E+02   3.352E-02
347.8  2.388E+02   3.245E-02
349.0  2.388E+02   3.140E-02
350.3  2.389E+02   3.041E-02
351.5  2.389E+02   2.945E-02
352.8  2.389E+02   2.852E-02
354.1  2.389E+02   2.762E-02
355.3  2.389E+02   2.675E-02
356.6  2.390E+02   2.591E-02
357.8  2.390E+02   2.510E-02
359.1  2.390E+02   2.431E-02
360.4  2.390E+02   2.355E-02
361.6  2.390E+02   2.281E-02
362.9  2.390E+02   2.210E-02
364.1  2.391E+02   2.142E-02
365.4  2.391E+02   2.076E-02
366.7  2.391E+02   2.013E-02
367.9  2.391E+02   1.952E-02
369.2  2.391E+02   1.892E-02
370.4  2.391E+02   1.835E-02
371.7  2.391E+02   1.779E-02
373.0  2.392E+02   1.725E-02
374.2  2.392E+02   1.673E-02
375.5  2.392E+02   1.623E-02
376.7  2.392E+02   1.575E-02
378.0  2.392E+02   1.529E-02
379.3  2.392E+02   1.484E-02
380.5  2.392E+02   1.440E-02
381.8  2.392E+02   1.398E-02
383.0  2.392E+02   1.358E-02
384.3  2.393E+02   1.318E-02
385.6  2.393E+02   1.280E-02
386.8  2.393E+02   1.243E-02
388.1  2.393E+02   1.208E-02
389.3  2.393E+02   1.174E-02
390.6  2.393E+02   1.141E-02
391.9  2.393E+02   1.110E-02
393.1  2.393E+02   1.079E-02
394.4  2.393E+02   1.049E-02
395.6  2.393E+02   1.021E-02
396.9  2.393E+02   9.931E-03
