Output Data from Bed Number 1 is given below:
Time   CP(1,T)/CT  CP(2,T)/CT  CP(3,T)/CT  CP(4,T)/CT  CP(5,T)/CT  CP(6,T)/CT
(min)  (-)         (-)         (-)         (-)         (-)         (-)
1.0    4.662E-06   1.000E+00
2.3    4.970E-06   1.000E+00
3.6    3.253E-06   1.000E+00
4.9    4.287E-06   1.000E+00
6.2    3.690E-06   1.000E+00
7.5    1.764E-06   1.000E+00
8.8    1.308E-07   1.000E+00
10.1   1.684E-06   1.000E+00
11.4   2.480E-06   1.000E+00
12.7   3.353E-06   1.000E+00
14.0   7.248E-06   1.000E+00
15.3   5.869E-07   1.000E+00
16.6   3.140E-06   1.000E+00
17.9   3.999E-06   1.000E+00
19.2   1.072E-06   1.000E+00
20.5   3.921E-06   1.000E+00
21.8   2.040E-06   1.000E+00
23.1   6.624E-06   1.000E+00
24.4   1.159E-05   1.000E+00
25.7   1.862E-05   1.000E+00
27.0   2.520E-05   1.000E+00
28.3   3.391E-05   1.000E+00
29.6   4.478E-05   1.000E+00
30.9   5.813E-05   9.999E-01
32.2   7.435E-05   9.999E-01
33.5   9.392E-05   9.999E-01
34.7   1.173E-04   9.999E-01
36.0   1.450E-04   9.999E-01
37.3   1.775E-04   9.998E-01
38.6   2.155E-04   9.998E-01
39.9   2.594E-04   9.997E-01
41.2   3.099E-04   9.997E-01
42.5   3.677E-04   9.996E-01
43.8   4.333E-04   9.996E-01
45.1   5.075E-04   9.995E-01
46.4   5.910E-04   9.994E-01
47.7   6.845E-04   9.993E-01
49.0   7.888E-04   9.992E-01
50.3   9.046E-04   9.991E-01
51.6   1.033E-03   9.990E-01
52.9   1.174E-03   9.988E-01
54.2   1.329E-03   9.987E-01
55.5   1.499E-03   9.985E-01
56.8   1.684E-03   9.983E-01
58.1   1.886E-03   9.981E-01
59.4   2.105E-03   9.979E-01
60.7   2.342E-03   9.977E-01
62.0   2.598E-03   9.974E-01
63.3   2.873E-03   9.971E-01
64.6   3.170E-03   9.968E-01
65.9   3.487E-03   9.965E-01
67.2   3.827E-03   9.962E-01
68.5   4.190E-03   9.958E-01
69.8   4.578E-03   9.954E-01
71.1   4.990E-03   9.950E-01
72.4   5.428E-03   9.946E-01
73.7   5.892E-03   9.941E-01
75.0   6.384E-03   9.936E-01
76.3   6.904E-03   9.931E-01
77.6   7.453E-03   9.925E-01
78.9   8.032E-03   9.920E-01
80.2   8.642E-03   9.914E-01
81.5   9.283E-03   9.907E-01
82.8   9.956E-03   9.900E-01
84.1   1.066E-02   9.893E-01
85.4   1.140E-02   9.886E-01
86.7   1.218E-02   9.878E-01
88.0   1.299E-02   9.870E-01
89.3   1.384E-02   9.862E-01
90.6   1.472E-02   9.853E-01
91.9   1.564E-02   9.844E-01
93.2   1.660E-02   9.834E-01
94.5   1.760E-02   9.824E-01
95.8   1.863E-02   9.814E-01
97.1   1.971E-02   9.803E-01
98.4   2.083E-02   9.792E-01
99.6   2.199E-02   9.780E-01
100.9  2.320E-02   9.768E-01
102.2  2.444E-02   9.756E-01
103.5  2.573E-02   9.743E-01
104.8  2.707E-02   9.729E-01
106.1  2.845E-02   9.716E-01
107.4  2.987E-02   9.701E-01
108.7  3.134E-02   9.687E-01
110.0  3.286E-02   9.671E-01
111.3  3.442E-02   9.656E-01
112.6  3.604E-02   9.640E-01
113.9  3.770E-02   9.623E-01
115.2  3.940E-02   9.606E-01
116.5  4.116E-02   9.588E-01
117.8  4.297E-02   9.570E-01
119.1  4.483E-02   9.552E-01
120.4  4.674E-02   9.533E-01
121.7  4.869E-02   9.513E-01
123.0  5.070E-02   9.493E-01
124.3  5.277E-02   9.472E-01
125.6  5.488E-02   9.451E-01
126.9  5.705E-02   9.430E-01
128.2  5.927E-02   9.407E-01
129.5  6.154E-02   9.385E-01
130.8  6.387E-02   9.361E-01
132.1  6.625E-02   9.338E-01
133.4  6.868E-02   9.313E-01
134.7  7.117E-02   9.288E-01
136.0  7.371E-02   9.263E-01
137.3  7.631E-02   9.237E-01
138.6  7.896E-02   9.210E-01
139.9  8.167E-02   9.183E-01
141.2  8.444E-02   9.156E-01
142.5  8.726E-02   9.127E-01
143.8  9.013E-02   9.099E-01
145.1  9.307E-02   9.069E-01
146.4  9.606E-02   9.039E-01
147.7  9.910E-02   9.009E-01
149.0  1.022E-01   8.978E-01
150.3  1.054E-01   8.946E-01
151.6  1.086E-01   8.914E-01
152.9  1.118E-01   8.882E-01
154.2  1.152E-01   8.848E-01
155.5  1.186E-01   8.814E-01
156.8  1.220E-01   8.780E-01
158.1  1.255E-01   8.745E-01
159.4  1.290E-01   8.710E-01
160.7  1.326E-01   8.674E-01
162.0  1.363E-01   8.637E-01
163.3  1.400E-01   8.600E-01
164.5  1.438E-01   8.562E-01
165.8  1.476E-01   8.524E-01
167.1  1.515E-01   8.485E-01
168.4  1.555E-01   8.445E-01
169.7  1.595E-01   8.405E-01
171.0  1.635E-01   8.365E-01
172.3  1.676E-01   8.324E-01
173.6  1.718E-01   8.282E-01
174.9  1.760E-01   8.240E-01
176.2  1.803E-01   8.197E-01
177.5  1.846E-01   8.154E-01
178.8  1.889E-01   8.111E-01
180.1  1.934E-01   8.066E-01
181.4  1.978E-01   8.022E-01
182.7  2.024E-01   7.976E-01
184.0  2.069E-01   7.931E-01
185.3  2.116E-01   7.884E-01
186.6  2.162E-01   7.838E-01
187.9  2.209E-01   7.791E-01
189.2  2.257E-01   7.743E-01
190.5  2.305E-01   7.695E-01
191.8  2.354E-01   7.646E-01
193.1  2.403E-01   7.597E-01
194.4  2.452E-01   7.548E-01
195.7  2.502E-01   7.498E-01
197.0  2.553E-01   7.447E-01
198.3  2.604E-01   7.396E-01
199.6  2.655E-01   7.345E-01
200.9  2.707E-01   7.293E-01
202.2  2.759E-01   7.241E-01
203.5  2.811E-01   7.189E-01
204.8  2.864E-01   7.136E-01
206.1  2.917E-01   7.083E-01
207.4  2.971E-01   7.029E-01
208.7  3.025E-01   6.975E-01
210.0  3.079E-01   6.921E-01
211.3  3.133E-01   6.867E-01
212.6  3.188E-01   6.812E-01
213.9  3.244E-01   6.756E-01
215.2  3.299E-01   6.701E-01
216.5  3.355E-01   6.645E-01
217.8  3.411E-01   6.589E-01
219.1  3.467E-01   6.533E-01
220.4  3.524E-01   6.476E-01
221.7  3.581E-01   6.419E-01
223.0  3.638E-01   6.362E-01
224.3  3.696E-01   6.304E-01
225.6  3.753E-01   6.247E-01
226.9  3.811E-01   6.189E-01
228.2  3.869E-01   6.131E-01
229.4  3.927E-01   6.073E-01
230.7  3.985E-01   6.015E-01
232.0  4.044E-01   5.956E-01
233.3  4.102E-01   5.898E-01
234.6  4.161E-01   5.839E-01
235.9  4.220E-01   5.780E-01
237.2  4.279E-01   5.721E-01
238.5  4.338E-01   5.662E-01
239.8  4.397E-01   5.603E-01
241.1  4.456E-01   5.544E-01
242.4  4.515E-01   5.485E-01
243.7  4.575E-01   5.425E-01
245.0  4.634E-01   5.366E-01
246.3  4.693E-01   5.307E-01
247.6  4.753E-01   5.247E-01
248.9  4.812E-01   5.188E-01
250.2  4.871E-01   5.129E-01
251.5  4.930E-01   5.070E-01
252.8  4.990E-01   5.010E-01
254.1  5.049E-01   4.951E-01
255.4  5.108E-01   4.892E-01
256.7  5.167E-01   4.833E-01
258.0  5.226E-01   4.774E-01
259.3  5.285E-01   4.715E-01
260.6  5.343E-01   4.657E-01
261.9  5.402E-01   4.598E-01
263.2  5.460E-01   4.540E-01
264.5  5.518E-01   4.482E-01
265.8  5.577E-01   4.423E-01
267.1  5.634E-01   4.366E-01
268.4  5.692E-01   4.308E-01
269.7  5.750E-01   4.250E-01
271.0  5.807E-01   4.193E-01
272.3  5.864E-01   4.136E-01
273.6  5.921E-01   4.079E-01
274.9  5.977E-01   4.023E-01
276.2  6.034E-01   3.966E-01
277.5  6.090E-01   3.910E-01
278.8  6.146E-01   3.854E-01
280.1  6.201E-01   3.799E-01
281.4  6.256E-01   3.744E-01
282.7  6.311E-01   3.689E-01
284.0  6.366E-01   3.634E-01
285.3  6.420E-01   3.580E-01
286.6  6.474E-01   3.526E-01
287.9  6.527E-01   3.473E-01
289.2  6.581E-01   3.419E-01
290.5  6.633E-01   3.367E-01
291.8  6.686E-01   3.314E-01
293.0  6.738E-01   3.262E-01
294.3  6.790E-01   3.210E-01
295.6  6.841E-01   3.159E-01
296.9  6.892E-01   3.108E-01
298.2  6.942E-01   3.058E-01
299.5  6.992E-01   3.008E-01
300.8  7.042E-01   2.958E-01
302.1  7.091E-01   2.909E-01
303.4  7.140E-01   2.860E-01
304.7  7.189E-01   2.811E-01
306.0  7.236E-01   2.764E-01
307.3  7.284E-01   2.716E-01
308.6  7.331E-01   2.669E-01
309.9  7.377E-01   2.623E-01
311.2  7.424E-01   2.576E-01
312.5  7.469E-01   2.531E-01
313.8  7.514E-01   2.486E-01
315.1  7.559E-01   2.441E-01
316.4  7.603E-01   2.397E-01
317.7  7.647E-01   2.353E-01
319.0  7.690E-01   2.310E-01
320.3  7.732E-01   2.268E-01
321.6  7.775E-01   2.225E-01
322.9  7.816E-01   2.184E-01
324.2  7.857E-01   2.143E-01
325.5  7.898E-01   2.102E-01
326.8  7.938E-01   2.062E-01
328.1  7.978E-01   2.022E-01
329.4  8.017E-01   1.983E-01
330.7  8.056E-01   1.944E-01
332.0  8.094E-01   1.906E-01
333.3  8.131E-01   1.869E-01
334.6  8.169E-01   1.831E-01
335.9  8.205E-01   1.795E-01
337.2  8.241E-01   1.759E-01
338.5  8.277E-01   1.723E-01
339.8  8.312E-01   1.688E-01
341.1  8.346E-01   1.654E-01
342.4  8.380E-01   1.620E-01
343.7  8.414E-01   1.586E-01
345.0  8.447E-01   1.553E-01
346.3  8.479E-01   1.521E-01
347.6  8.511E-01   1.489E-01
348.9  8.543E-01   1.457E-01
350.2  8.574E-01   1.426E-01
351.5  8.604E-01   1.396E-01
352.8  8.634E-01   1.366E-01
354.1  8.664E-01   1.336E-01
355.4  8.693E-01   1.307E-01
356.7  8.721E-01   1.279E-01
357.9  8.749E-01   1.251E-01
359.2  8.777E-01   1.223E-01
360.5  8.804E-01   1.196E-01
361.8  8.831E-01   1.169E-01
363.1  8.857E-01   1.143E-01
364.4  8.882E-01   1.118E-01
365.7  8.907E-01   1.093E-01
367.0  8.932E-01   1.068E-01
368.3  8.957E-01   1.043E-01
369.6  8.980E-01   1.020E-01
370.9  9.004E-01   9.963E-02
372.2  9.027E-01   9.733E-02
373.5  9.049E-01   9.508E-02
374.8  9.071E-01   9.287E-02
376.1  9.093E-01   9.071E-02
377.4  9.114E-01   8.858E-02
378.7  9.135E-01   8.650E-02
380.0  9.155E-01   8.446E-02
381.3  9.175E-01   8.246E-02
382.6  9.195E-01   8.050E-02
383.9  9.214E-01   7.858E-02
385.2  9.233E-01   7.670E-02
386.5  9.251E-01   7.486E-02
387.8  9.269E-01   7.306E-02
389.1  9.287E-01   7.129E-02
390.4  9.304E-01   6.956E-02
391.7  9.321E-01   6.787E-02
393.0  9.338E-01   6.621E-02
394.3  9.354E-01   6.459E-02
395.6  9.370E-01   6.301E-02
396.9  9.385E-01   6.145E-02
398.2  9.401E-01   5.993E-02
399.5  9.416E-01   5.845E-02
400.8  9.430E-01   5.700E-02
402.1  9.444E-01   5.558E-02
403.4  9.458E-01   5.419E-02
404.7  9.472E-01   5.283E-02
406.0  9.485E-01   5.150E-02
407.3  9.498E-01   5.020E-02
408.6  9.511E-01   4.894E-02
409.9  9.523E-01   4.770E-02
411.2  9.535E-01   4.649E-02
412.5  9.547E-01   4.530E-02
413.8  9.559E-01   4.415E-02
415.1  9.570E-01   4.302E-02
416.4  9.581E-01   4.192E-02
417.7  9.592E-01   4.084E-02
419.0  9.602E-01   3.979E-02
420.3  9.612E-01   3.876E-02
421.6  9.622E-01   3.776E-02
422.8  9.632E-01   3.678E-02
424.1  9.642E-01   3.583E-02
425.4  9.651E-01   3.490E-02
426.7  9.660E-01   3.399E-02
428.0  9.669E-01   3.310E-02
429.3  9.678E-01   3.224E-02
430.6  9.686E-01   3.139E-02
431.9  9.694E-01   3.057E-02
433.2  9.702E-01   2.977E-02
434.5  9.710E-01   2.898E-02
435.8  9.718E-01   2.822E-02
437.1  9.725E-01   2.747E-02
438.4  9.733E-01   2.675E-02
439.7  9.740E-01   2.604E-02
441.0  9.747E-01   2.535E-02
442.3  9.753E-01   2.467E-02
443.6  9.760E-01   2.402E-02
444.9  9.766E-01   2.338E-02
446.2  9.772E-01   2.275E-02
447.5  9.779E-01   2.215E-02
448.8  9.784E-01   2.155E-02
450.1  9.790E-01   2.098E-02
451.4  9.796E-01   2.041E-02
452.7  9.801E-01   1.987E-02
454.0  9.807E-01   1.933E-02
455.3  9.812E-01   1.881E-02
456.6  9.817E-01   1.830E-02
457.9  9.822E-01   1.781E-02
459.2  9.827E-01   1.733E-02
460.5  9.831E-01   1.686E-02
461.8  9.836E-01   1.641E-02
463.1  9.840E-01   1.596E-02
464.4  9.845E-01   1.553E-02
465.7  9.849E-01   1.511E-02
467.0  9.853E-01   1.470E-02
468.3  9.857E-01   1.430E-02
469.6  9.861E-01   1.391E-02
470.9  9.865E-01   1.353E-02
472.2  9.868E-01   1.316E-02
473.5  9.872E-01   1.280E-02
474.8  9.875E-01   1.246E-02
476.1  9.879E-01   1.212E-02
477.4  9.882E-01   1.178E-02
478.7  9.885E-01   1.146E-02
480.0  9.889E-01   1.115E-02
481.3  9.892E-01   1.084E-02
482.6  9.895E-01   1.055E-02
483.9  9.897E-01   1.026E-02
485.2  9.900E-01   9.979E-03
486.5  9.903E-01   9.706E-03
487.7  9.906E-01   9.440E-03
489.0  9.908E-01   9.181E-03
490.3  9.911E-01   8.929E-03
491.6  9.913E-01   8.684E-03
492.9  9.916E-01   8.446E-03
494.2  9.918E-01   8.214E-03
495.5  9.920E-01   7.989E-03
496.8  9.922E-01   7.769E-03
498.1  9.924E-01   7.556E-03
499.4  9.927E-01   7.349E-03
500.7  9.929E-01   7.147E-03
502.0  9.930E-01   6.951E-03
503.3  9.932E-01   6.760E-03
504.6  9.934E-01   6.575E-03
505.9  9.936E-01   6.395E-03
507.2  9.938E-01   6.219E-03
508.5  9.940E-01   6.049E-03
509.8  9.941E-01   5.883E-03
511.1  9.943E-01   5.722E-03
512.4  9.944E-01   5.565E-03
513.7  9.946E-01   5.413E-03
515.0  9.947E-01   5.264E-03
516.3  9.949E-01   5.120E-03
517.6  9.950E-01   4.980E-03
518.0  9.951E-01   4.938E-03
